# OpenSignals Text File Format. Version 1
# {"00:07:80:0F:2F:AD": {"position": 0, "device": "biosignalsplux", "device name": "00:07:80:0F:2F:AD", "device connection": "BTH00:07:80:0F:2F:AD", "sampling rate": 400, "resolution": [16, 16, 16], "firmware version": 775, "comments": "", "keywords": "", "mode": 0, "sync interval": 2, "date": "2023-6-28", "time": "17:17:35.207", "channels": [1, 2, 3], "sensor": ["XYZ", "XYZ", "XYZ"], "label": ["CH1", "CH2", "CH3"], "column": ["nSeq", "DI", "CH1", "CH2", "CH3"], "special": [{"SpO2": [80, 40, 5, 4, 3, 3]}, {"SpO2": [80, 40, 5, 4, 3, 3]}, {"SpO2": [80, 40, 5, 4, 3, 3]}, {"SpO2": [80, 40, 5, 4, 3, 3]}, {"SpO2": [80, 40, 5, 4, 3, 3]}, {"SpO2": [80, 40, 5, 4, 3, 3]}, {"SpO2": [80, 40, 5, 4, 3, 3]}, {"SpO2": [80, 40, 5, 4, 3, 3]}], "digital IO": [0, 1], "sleeve color": ["yellow", "", ""]}}
# EndOfHeader
0	0	33976	32640	37812	
1	0	33984	32624	37832	
2	0	34008	32624	37796	
3	0	34004	32620	37808	
4	0	34000	32624	37784	
5	0	34008	32616	37796	
6	0	34000	32602	37780	
7	0	34004	32596	37796	
8	0	33996	32588	37776	
9	0	34000	32600	37774	
10	0	33996	32592	37788	
11	0	33988	32612	37792	
12	0	34000	32610	37800	
13	0	33996	32624	37796	
14	0	33992	32632	37788	
15	0	33992	32628	37784	
16	0	33988	32620	37808	
17	0	33988	32596	37812	
18	0	33984	32584	37774	
19	0	33984	32568	37744	
20	0	33976	32570	37744	
21	0	33988	32564	37712	
22	0	33964	32548	37728	
23	0	33964	32554	37724	
24	0	33944	32532	37708	
25	0	33940	32548	37732	
26	0	33952	32548	37732	
27	0	33952	32544	37720	
28	0	33968	32536	37740	
29	0	33964	32552	37748	
30	0	33972	32552	37740	
31	0	33968	32556	37768	
32	0	33976	32552	37740	
33	0	33988	32556	37728	
34	0	33984	32540	37720	
35	0	33984	32564	37744	
36	0	33978	32556	37744	
37	0	33994	32564	37764	
38	0	33984	32576	37768	
39	0	34000	32576	37788	
40	0	34008	32592	37796	
41	0	34008	32596	37788	
42	0	34020	32600	37800	
43	0	34008	32596	37808	
44	0	33996	32608	37816	
45	0	34004	32604	37784	
46	0	34012	32588	37808	
47	0	33992	32600	37800	
48	0	34010	32604	37788	
49	0	34016	32608	37804	
50	0	34020	32608	37832	
51	0	34024	32612	37824	
52	0	34000	32620	37812	
53	0	34000	32618	37800	
54	0	34004	32608	37816	
55	0	34000	32596	37780	
56	0	33996	32596	37804	
57	0	33992	32600	37824	
58	0	33980	32628	37804	
59	0	33988	32616	37804	
60	0	34016	32608	37820	
61	0	33996	32632	37816	
62	0	34000	32608	37816	
63	0	33992	32612	37828	
64	0	33984	32604	37834	
65	0	33984	32608	37816	
66	0	33984	32608	37776	
67	0	33972	32612	37772	
68	0	33984	32604	37760	
69	0	33984	32592	37780	
70	0	33968	32600	37820	
71	0	33988	32616	37828	
72	0	33992	32608	37804	
73	0	33992	32624	37820	
74	0	34000	32624	37824	
75	0	33988	32628	37840	
76	0	33992	32624	37800	
77	0	33980	32608	37792	
78	0	34000	32592	37786	
79	0	33984	32610	37760	
80	0	33992	32584	37792	
81	0	33984	32588	37764	
82	0	34000	32616	37772	
83	0	33992	32624	37784	
84	0	33996	32608	37768	
85	0	34000	32620	37784	
86	0	34008	32612	37776	
87	0	34004	32616	37784	
88	0	33984	32622	37784	
89	0	34000	32616	37800	
90	0	33992	32620	37804	
91	0	33968	32620	37804	
92	0	33990	32616	37824	
93	0	33996	32616	37816	
94	0	34000	32626	37808	
95	0	33976	32640	37812	
96	0	33992	32632	37784	
97	0	33984	32640	37800	
98	0	33992	32648	37818	
99	0	34004	32650	37812	
100	0	33984	32644	37824	
101	0	33976	32636	37800	
102	0	33972	32592	37788	
103	0	33984	32544	37752	
104	0	33980	32544	37742	
105	0	33964	32548	37732	
106	0	33970	32568	37712	
107	0	33964	32592	37708	
108	0	33980	32624	37756	
109	0	34000	32652	37792	
110	0	34028	32680	37842	
111	0	34008	32690	37864	
112	0	34024	32733	37880	
113	0	34020	32732	37900	
114	0	34024	32728	37880	
115	0	34016	32704	37872	
116	0	34032	32712	37868	
117	0	34012	32684	37844	
118	0	34000	32678	37812	
119	0	34000	32656	37800	
120	0	33984	32656	37788	
121	0	34004	32648	37776	
122	0	34000	32672	37792	
123	0	33992	32684	37808	
124	0	34002	32680	37844	
125	0	33984	32688	37832	
126	0	33980	32688	37824	
127	0	33988	32680	37796	
128	0	33973	32664	37776	
129	0	33972	32620	37756	
130	0	33956	32568	37756	
131	0	33968	32552	37720	
132	0	33952	32568	37730	
133	0	33968	32576	37696	
134	0	33960	32600	37736	
135	0	33968	32636	37772	
136	0	33996	32656	37800	
137	0	34004	32676	37800	
138	0	33996	32712	37848	
139	0	34008	32704	37848	
140	0	34024	32684	37840	
141	0	33996	32680	37848	
142	0	33992	32674	37804	
143	0	33996	32672	37808	
144	0	33988	32652	37836	
145	0	33992	32656	37804	
146	0	33992	32644	37812	
147	0	33992	32648	37808	
148	0	33972	32644	37808	
149	0	33980	32632	37778	
150	0	33988	32628	37800	
151	0	33984	32636	37824	
152	0	34000	32624	37820	
153	0	33980	32636	37810	
154	0	33988	32640	37788	
155	0	33976	32652	37788	
156	0	33992	32648	37760	
157	0	33984	32648	37772	
158	0	33988	32652	37784	
159	0	33964	32650	37784	
160	0	33984	32640	37796	
161	0	33984	32634	37828	
162	0	33986	32624	37818	
163	0	33976	32640	37812	
164	0	33960	32648	37784	
165	0	33972	32636	37792	
166	0	33972	32660	37794	
167	0	34008	32648	37816	
168	0	34020	32674	37848	
169	0	34020	32704	37856	
170	0	34000	32720	37872	
171	0	34024	32728	37880	
172	0	34020	32748	37895	
173	0	34010	32756	37908	
174	0	34012	32728	37894	
175	0	34000	32678	37837	
176	0	33992	32632	37848	
177	0	33984	32604	37848	
178	0	33980	32580	37824	
179	0	33968	32600	37800	
180	0	33980	32624	37808	
181	0	33976	32660	37816	
182	0	34000	32668	37856	
183	0	33984	32688	37852	
184	0	33992	32696	37880	
185	0	33992	32696	37888	
186	0	33996	32704	37872	
187	0	33988	32680	37846	
188	0	33984	32676	37828	
189	0	33976	32656	37812	
190	0	33968	32632	37792	
191	0	33972	32640	37808	
192	0	33984	32636	37804	
193	0	33984	32632	37776	
194	0	33992	32632	37816	
195	0	33984	32636	37800	
196	0	33988	32648	37816	
197	0	33972	32644	37816	
198	0	33988	32656	37808	
199	0	33992	32672	37796	
200	0	33976	32688	37812	
201	0	33992	32710	37792	
202	0	34000	32696	37796	
203	0	33984	32684	37808	
204	0	33976	32656	37796	
205	0	33984	32632	37784	
206	0	33984	32632	37804	
207	0	33960	32628	37788	
208	0	33968	32628	37800	
209	0	33976	32628	37792	
210	0	33968	32644	37776	
211	0	33968	32642	37776	
212	0	33976	32664	37772	
213	0	33984	32668	37804	
214	0	33984	32688	37800	
215	0	33960	32692	37820	
216	0	33964	32680	37824	
217	0	33968	32680	37816	
218	0	33968	32672	37784	
219	0	33976	32652	37780	
220	0	33964	32644	37780	
221	0	33956	32656	37768	
222	0	33952	32644	37768	
223	0	33952	32628	37772	
224	0	33936	32632	37732	
225	0	33956	32620	37760	
226	0	33948	32624	37768	
227	0	33956	32608	37768	
228	0	33960	32634	37772	
229	0	33976	32625	37780	
230	0	33972	32632	37760	
231	0	33984	32620	37784	
232	0	33976	32628	37816	
233	0	33988	32644	37788	
234	0	33984	32652	37792	
235	0	33984	32648	37784	
236	0	33984	32632	37780	
237	0	34000	32644	37800	
238	0	33984	32628	37792	
239	0	33980	32632	37760	
240	0	33988	32640	37800	
241	0	33992	32640	37768	
242	0	33988	32636	37788	
243	0	34000	32660	37792	
244	0	33996	32652	37784	
245	0	34004	32656	37792	
246	0	34004	32658	37788	
247	0	33992	32664	37796	
248	0	34000	32660	37808	
249	0	34008	32640	37812	
250	0	34012	32648	37804	
251	0	33986	32648	37816	
252	0	34012	32640	37816	
253	0	33988	32658	37780	
254	0	34004	32656	37784	
255	0	34012	32650	37792	
256	0	34004	32668	37816	
257	0	34004	32664	37802	
258	0	34012	32672	37800	
259	0	34008	32672	37808	
260	0	34016	32688	37800	
261	0	34008	32668	37840	
262	0	34016	32660	37806	
263	0	34000	32656	37788	
264	0	34004	32648	37812	
265	0	33997	32640	37800	
266	0	34000	32656	37800	
267	0	34000	32660	37802	
268	0	34000	32672	37792	
269	0	34000	32664	37816	
270	0	34000	32652	37788	
271	0	34004	32656	37778	
272	0	34004	32654	37800	
273	0	33988	32640	37796	
274	0	33984	32636	37808	
275	0	33992	32604	37780	
276	0	33986	32584	37776	
277	0	33996	32552	37760	
278	0	33984	32544	37776	
279	0	33980	32564	37764	
280	0	34000	32568	37756	
281	0	33984	32604	37760	
282	0	33992	32620	37793	
283	0	34000	32604	37776	
284	0	34004	32592	37768	
285	0	34000	32592	37808	
286	0	33996	32584	37772	
287	0	34000	32572	37780	
288	0	33996	32580	37770	
289	0	33996	32578	37768	
290	0	34016	32576	37736	
291	0	34008	32580	37732	
292	0	34012	32576	37696	
293	0	34028	32584	37740	
294	0	34012	32604	37744	
295	0	34024	32621	37772	
296	0	34040	32616	37808	
297	0	34036	32624	37788	
298	0	34036	32644	37788	
299	0	34016	32632	37800	
300	0	34016	32620	37752	
301	0	34028	32608	37776	
302	0	34016	32620	37772	
303	0	34016	32610	37796	
304	0	34016	32604	37800	
305	0	34000	32608	37800	
306	0	34004	32596	37816	
307	0	33992	32584	37780	
308	0	34000	32572	37776	
309	0	33992	32568	37780	
310	0	34000	32592	37792	
311	0	34008	32596	37756	
312	0	34008	32612	37768	
313	0	34008	32620	37800	
314	0	34012	32624	37808	
315	0	34012	32648	37800	
316	0	34004	32676	37832	
317	0	34016	32664	37832	
318	0	34028	32656	37856	
319	0	34016	32652	37852	
320	0	34020	32664	37848	
321	0	34020	32652	37836	
322	0	34016	32676	37848	
323	0	34024	32672	37826	
324	0	34016	32672	37842	
325	0	34018	32676	37832	
326	0	34020	32672	37876	
327	0	34016	32668	37864	
328	0	34024	32660	37828	
329	0	34024	32645	37816	
330	0	34016	32644	37810	
331	0	34016	32616	37812	
332	0	34020	32596	37836	
333	0	34010	32592	37824	
334	0	34020	32608	37768	
335	0	34016	32604	37788	
336	0	34036	32602	37808	
337	0	34024	32624	37812	
338	0	34016	32632	37816	
339	0	34032	32612	37820	
340	0	34032	32612	37804	
341	0	34016	32620	37824	
342	0	34020	32616	37776	
343	0	34004	32600	37760	
344	0	34004	32588	37764	
345	0	34008	32586	37754	
346	0	34012	32572	37744	
347	0	34008	32568	37748	
348	0	34016	32572	37769	
349	0	34004	32568	37740	
350	0	34008	32568	37752	
351	0	34004	32568	37748	
352	0	34020	32593	37768	
353	0	34024	32596	37776	
354	0	34020	32612	37772	
355	0	34016	32608	37776	
356	0	34012	32596	37784	
357	0	34008	32592	37796	
358	0	34016	32564	37782	
359	0	34012	32564	37768	
360	0	34000	32576	37788	
361	0	34004	32596	37776	
362	0	34016	32622	37776	
363	0	34012	32628	37772	
364	0	34000	32644	37808	
365	0	34012	32636	37816	
366	0	34020	32632	37820	
367	0	34024	32620	37832	
368	0	34008	32636	37808	
369	0	34012	32620	37820	
370	0	34008	32600	37812	
371	0	34012	32600	37792	
372	0	34032	32616	37780	
373	0	34000	32620	37800	
374	0	34008	32632	37840	
375	0	33992	32636	37800	
376	0	34010	32608	37800	
377	0	34008	32620	37792	
378	0	34008	32634	37832	
379	0	34012	32636	37812	
380	0	34004	32636	37816	
381	0	33996	32632	37828	
382	0	34000	32608	37800	
383	0	33984	32600	37790	
384	0	33984	32588	37804	
385	0	33984	32576	37768	
386	0	33988	32568	37776	
387	0	33988	32562	37772	
388	0	33976	32578	37764	
389	0	33984	32577	37748	
390	0	33972	32580	37784	
391	0	33992	32596	37756	
392	0	34014	32608	37800	
393	0	34008	32604	37800	
394	0	34008	32612	37792	
395	0	34008	32620	37768	
396	0	34000	32592	37792	
397	0	34008	32592	37788	
398	0	34000	32584	37756	
399	0	34012	32588	37796	
400	0	33988	32586	37752	
401	0	33996	32572	37760	
402	0	34010	32552	37728	
403	0	34008	32552	37740	
404	0	34008	32572	37772	
405	0	34008	32568	37776	
406	0	34016	32572	37792	
407	0	34024	32560	37792	
408	0	34028	32576	37812	
409	0	34020	32584	37756	
410	0	34020	32588	37764	
411	0	34008	32568	37816	
412	0	34016	32552	37774	
413	0	34016	32554	37756	
414	0	34000	32580	37792	
415	0	34032	32576	37788	
416	0	34036	32592	37792	
417	0	34024	32616	37776	
418	0	34032	32608	37802	
419	0	34020	32620	37800	
420	0	34044	32628	37816	
421	0	34020	32624	37808	
422	0	34024	32608	37800	
423	0	34020	32628	37800	
424	0	34024	32640	37796	
425	0	34012	32632	37812	
426	0	34016	32612	37808	
427	0	34012	32596	37804	
428	0	34000	32616	37808	
429	0	34008	32592	37788	
430	0	34016	32596	37784	
431	0	34024	32576	37788	
432	0	34016	32568	37792	
433	0	34016	32592	37832	
434	0	33988	32608	37804	
435	0	34016	32616	37832	
436	0	34020	32616	37812	
437	0	34032	32616	37812	
438	0	34016	32620	37812	
439	0	34016	32628	37850	
440	0	34008	32620	37864	
441	0	34028	32616	37832	
442	0	34024	32628	37812	
443	0	34032	32620	37800	
444	0	34016	32600	37792	
445	0	34012	32616	37816	
446	0	34020	32592	37828	
447	0	34012	32588	37808	
448	0	33992	32620	37824	
449	0	33996	32604	37804	
450	0	33984	32588	37812	
451	0	33992	32584	37774	
452	0	33992	32576	37788	
453	0	33976	32576	37792	
454	0	33992	32576	37756	
455	0	33994	32564	37780	
456	0	33984	32568	37776	
457	0	33992	32576	37772	
458	0	33996	32576	37776	
459	0	33992	32576	37796	
460	0	33984	32544	37788	
461	0	33976	32548	37768	
462	0	33988	32552	37756	
463	0	33968	32564	37780	
464	0	33992	32572	37812	
465	0	33984	32584	37804	
466	0	33992	32592	37808	
467	0	33992	32584	37808	
468	0	33992	32592	37778	
469	0	33992	32576	37788	
470	0	33994	32588	37772	
471	0	34004	32584	37772	
472	0	33968	32572	37764	
473	0	33968	32564	37764	
474	0	33976	32564	37760	
475	0	33976	32548	37800	
476	0	33992	32556	37794	
477	0	33988	32564	37816	
478	0	34008	32576	37816	
479	0	34016	32586	37816	
480	0	34012	32600	37796	
481	0	34016	32604	37800	
482	0	34000	32592	37836	
483	0	34008	32596	37832	
484	0	34000	32608	37836	
485	0	34012	32584	37830	
486	0	34004	32584	37808	
487	0	33992	32578	37824	
488	0	33992	32576	37808	
489	0	33978	32584	37808	
490	0	33976	32600	37808	
491	0	33984	32608	37804	
492	0	33969	32612	37816	
493	0	34000	32588	37828	
494	0	33972	32588	37808	
495	0	33996	32580	37816	
496	0	33992	32584	37792	
497	0	33976	32576	37784	
498	0	33984	32572	37780	
499	0	33976	32584	37792	
500	0	33980	32582	37780	
501	0	33968	32584	37776	
502	0	33976	32576	37804	
503	0	33968	32564	37796	
504	0	33960	32580	37804	
505	0	33968	32580	37816	
506	0	33976	32556	37836	
507	0	33976	32580	37812	
508	0	33980	32596	37792	
509	0	33978	32600	37788	
510	0	34000	32592	37800	
511	0	34004	32588	37825	
512	0	33992	32600	37816	
513	0	33988	32608	37836	
514	0	33988	32612	37813	
515	0	33992	32592	37828	
516	0	33976	32600	37824	
517	0	33986	32604	37808	
518	0	33992	32612	37796	
519	0	34000	32604	37804	
520	0	33988	32576	37816	
521	0	33984	32594	37828	
522	0	33984	32568	37828	
523	0	33992	32576	37840	
524	0	33980	32576	37828	
525	0	33972	32596	37836	
526	0	33968	32580	37796	
527	0	33976	32586	37792	
528	0	33988	32588	37808	
529	0	33984	32592	37848	
530	0	33976	32588	37824	
531	0	33978	32596	37816	
532	0	33976	32604	37840	
533	0	33984	32596	37808	
534	0	33984	32578	37796	
535	0	33980	32600	37800	
536	0	33984	32588	37808	
537	0	33984	32596	37800	
538	0	33992	32592	37836	
539	0	33984	32606	37796	
540	0	33976	32608	37816	
541	0	33992	32608	37832	
542	0	33996	32600	37818	
543	0	34000	32616	37812	
544	0	33984	32612	37800	
545	0	33992	32612	37808	
546	0	34000	32594	37788	
547	0	34000	32572	37776	
548	0	33984	32584	37768	
549	0	33960	32596	37764	
550	0	33984	32580	37772	
551	0	33976	32592	37784	
552	0	33984	32592	37808	
553	0	33980	32608	37808	
554	0	34000	32612	37808	
555	0	34024	32584	37808	
556	0	34016	32592	37804	
557	0	33988	32609	37772	
558	0	33992	32596	37770	
559	0	34000	32600	37784	
560	0	34004	32576	37786	
561	0	34004	32588	37784	
562	0	33988	32608	37786	
563	0	33984	32600	37804	
564	0	34004	32588	37776	
565	0	34000	32604	37793	
566	0	33992	32608	37800	
567	0	34000	32620	37812	
568	0	33996	32620	37808	
569	0	33992	32625	37838	
570	0	34008	32636	37800	
571	0	34012	32608	37804	
572	0	34016	32602	37802	
573	0	34000	32616	37824	
574	0	34004	32628	37804	
575	0	34008	32616	37792	
576	0	34004	32600	37816	
577	0	33988	32588	37788	
578	0	34008	32588	37808	
579	0	33980	32604	37796	
580	0	33988	32592	37800	
581	0	33984	32592	37792	
582	0	33984	32584	37756	
583	0	33972	32578	37776	
584	0	33984	32570	37780	
585	0	33984	32552	37736	
586	0	34000	32556	37732	
587	0	33992	32544	37728	
588	0	33992	32532	37732	
589	0	33992	32524	37742	
590	0	33988	32548	37728	
591	0	33988	32564	37760	
592	0	33984	32540	37736	
593	0	33980	32536	37752	
594	0	33984	32544	37760	
595	0	33972	32560	37764	
596	0	33992	32564	37768	
597	0	34001	32580	37760	
598	0	34016	32588	37784	
599	0	34016	32580	37760	
600	0	34016	32588	37780	
601	0	34016	32584	37768	
602	0	34008	32588	37780	
603	0	34016	32584	37768	
604	0	33992	32588	37768	
605	0	34000	32588	37764	
606	0	34000	32612	37804	
607	0	34008	32572	37784	
608	0	34004	32596	37800	
609	0	34012	32592	37836	
610	0	34008	32596	37828	
611	0	34020	32588	37804	
612	0	34016	32578	37800	
613	0	34004	32576	37784	
614	0	33996	32576	37800	
615	0	34000	32576	37816	
616	0	33988	32564	37824	
617	0	34008	32552	37818	
618	0	33992	32560	37804	
619	0	33980	32560	37784	
620	0	33984	32544	37788	
621	0	33992	32540	37780	
622	0	33988	32544	37768	
623	0	33992	32540	37764	
624	0	33992	32552	37804	
625	0	34006	32556	37784	
626	0	34000	32588	37776	
627	0	34012	32576	37808	
628	0	34008	32576	37804	
629	0	34008	32604	37800	
630	0	34016	32596	37776	
631	0	34024	32592	37832	
632	0	34020	32600	37816	
633	0	34024	32584	37808	
634	0	34032	32584	37784	
635	0	34026	32592	37788	
636	0	34016	32596	37816	
637	0	34012	32568	37812	
638	0	34012	32592	37812	
639	0	34032	32584	37796	
640	0	34036	32592	37788	
641	0	34024	32600	37808	
642	0	34020	32604	37856	
643	0	34004	32612	37834	
644	0	34020	32592	37828	
645	0	34016	32586	37832	
646	0	34008	32588	37824	
647	0	34000	32580	37844	
648	0	33996	32576	37812	
649	0	33986	32552	37816	
650	0	34004	32560	37816	
651	0	33992	32556	37836	
652	0	33996	32556	37816	
653	0	34024	32564	37816	
654	0	33992	32572	37832	
655	0	33984	32580	37828	
656	0	34004	32568	37828	
657	0	34032	32560	37832	
658	0	34024	32560	37808	
659	0	34040	32577	37820	
660	0	34032	32576	37804	
661	0	34036	32586	37788	
662	0	34034	32596	37820	
663	0	34052	32602	37792	
664	0	34052	32606	37808	
665	0	34040	32604	37816	
666	0	34052	32600	37812	
667	0	34048	32616	37792	
668	0	34032	32624	37808	
669	0	34036	32600	37808	
670	0	34064	32600	37784	
671	0	34048	32584	37804	
672	0	34036	32564	37800	
673	0	34040	32576	37780	
674	0	34034	32576	37744	
675	0	34040	32576	37780	
676	0	34040	32560	37764	
677	0	34024	32560	37764	
678	0	34024	32564	37776	
679	0	34020	32560	37780	
680	0	34044	32556	37740	
681	0	34036	32564	37768	
682	0	34044	32556	37780	
683	0	34037	32550	37780	
684	0	34028	32556	37760	
685	0	34008	32576	37760	
686	0	34004	32588	37784	
687	0	34008	32576	37760	
688	0	34008	32592	37778	
689	0	34028	32592	37760	
690	0	34028	32610	37784	
691	0	34024	32618	37788	
692	0	34032	32612	37824	
693	0	34040	32616	37800	
694	0	34028	32604	37804	
695	0	34024	32608	37794	
696	0	34012	32596	37804	
697	0	34008	32608	37768	
698	0	34024	32616	37768	
699	0	34036	32616	37772	
700	0	34036	32604	37772	
701	0	34028	32608	37796	
702	0	34028	32620	37816	
703	0	34036	32612	37800	
704	0	34016	32596	37808	
705	0	34024	32596	37792	
706	0	34024	32576	37812	
707	0	34020	32588	37804	
708	0	34008	32592	37784	
709	0	34008	32588	37788	
710	0	34008	32580	37780	
711	0	34008	32568	37768	
712	0	34016	32556	37800	
713	0	34004	32564	37736	
714	0	34008	32560	37760	
715	0	34016	32524	37744	
716	0	34016	32536	37752	
717	0	34000	32520	37744	
718	0	34020	32538	37752	
719	0	34028	32544	37772	
720	0	34024	32552	37744	
721	0	34020	32564	37752	
722	0	34020	32568	37800	
723	0	34016	32574	37784	
724	0	34018	32564	37772	
725	0	34012	32556	37776	
726	0	34008	32552	37764	
727	0	34000	32556	37772	
728	0	34008	32560	37764	
729	0	34004	32552	37780	
730	0	33994	32548	37748	
731	0	34016	32528	37768	
732	0	34012	32528	37748	
733	0	34000	32536	37718	
734	0	33977	32552	37732	
735	0	33996	32528	37744	
736	0	33984	32512	37760	
737	0	33996	32512	37754	
738	0	33988	32528	37776	
739	0	33992	32524	37764	
740	0	33992	32536	37754	
741	0	33992	32544	37728	
742	0	34000	32546	37736	
743	0	34000	32520	37756	
744	0	34000	32522	37774	
745	0	33976	32504	37760	
746	0	33972	32496	37762	
747	0	33952	32506	37768	
748	0	33976	32500	37776	
749	0	33956	32500	37776	
750	0	33960	32504	37784	
751	0	33952	32524	37768	
752	0	33968	32540	37780	
753	0	33960	32560	37772	
754	0	33992	32552	37800	
755	0	33988	32564	37788	
756	0	33988	32556	37808	
757	0	33996	32548	37792	
758	0	33996	32560	37826	
759	0	33980	32560	37808	
760	0	33992	32552	37816	
761	0	33992	32540	37808	
762	0	33980	32536	37816	
763	0	33980	32532	37816	
764	0	33984	32488	37800	
765	0	33968	32528	37784	
766	0	33996	32512	37772	
767	0	33992	32512	37804	
768	0	33992	32524	37768	
769	0	33992	32524	37816	
770	0	33988	32512	37788	
771	0	34000	32520	37800	
772	0	34008	32528	37788	
773	0	34000	32528	37792	
774	0	33996	32528	37788	
775	0	34000	32536	37796	
776	0	34008	32518	37772	
777	0	34008	32504	37792	
778	0	34008	32508	37768	
779	0	34000	32514	37788	
780	0	34008	32508	37768	
781	0	34008	32512	37768	
782	0	34004	32512	37792	
783	0	33992	32513	37776	
784	0	34008	32520	37772	
785	0	34008	32548	37792	
786	0	34012	32548	37796	
787	0	34000	32560	37784	
788	0	34008	32592	37796	
789	0	34024	32584	37812	
790	0	34000	32588	37824	
791	0	34008	32576	37812	
792	0	34016	32596	37820	
793	0	34012	32580	37852	
794	0	34016	32586	37804	
795	0	34020	32576	37788	
796	0	34010	32580	37822	
797	0	34000	32576	37808	
798	0	33992	32576	37812	
799	0	33992	32584	37800	
800	0	33996	32600	37808	
801	0	34004	32584	37816	
802	0	34004	32592	37824	
803	0	33984	32592	37784	
804	0	33964	32620	37760	
805	0	33992	32608	37808	
806	0	33984	32596	37816	
807	0	33976	32624	37808	
808	0	33996	32632	37804	
809	0	34000	32604	37780	
810	0	33992	32596	37832	
811	0	34008	32596	37800	
812	0	33980	32600	37740	
813	0	33968	32604	37744	
814	0	33964	32572	37812	
815	0	33980	32572	37876	
816	0	33980	32552	37840	
817	0	33986	32552	37832	
818	0	33992	32548	37784	
819	0	33980	32566	37788	
820	0	33988	32544	37772	
821	0	33984	32552	37768	
822	0	33996	32546	37756	
823	0	33996	32572	37792	
824	0	33984	32592	37788	
825	0	33996	32644	37788	
826	0	33952	32728	37800	
827	0	33980	32688	37788	
828	0	34000	32588	37812	
829	0	34016	32576	37836	
830	0	34000	32604	37812	
831	0	33992	32624	37820	
832	0	33988	32660	37841	
833	0	34012	32672	37852	
834	0	34012	32664	37826	
835	0	33984	32642	37840	
836	0	33968	32628	37804	
837	0	33968	32608	37808	
838	0	33968	32604	37820	
839	0	33968	32604	37802	
840	0	33960	32600	37780	
841	0	33968	32584	37792	
842	0	33964	32588	37776	
843	0	33960	32584	37796	
844	0	33968	32580	37788	
845	0	33968	32568	37740	
846	0	33976	32570	37724	
847	0	33978	32584	37764	
848	0	33992	32586	37788	
849	0	33988	32588	37754	
850	0	33984	32600	37824	
851	0	33976	32608	37790	
852	0	33976	32616	37816	
853	0	33976	32636	37816	
854	0	33970	32636	37796	
855	0	33968	32644	37812	
856	0	33952	32648	37828	
857	0	33952	32624	37812	
858	0	33932	32644	37772	
859	0	33928	32624	37752	
860	0	33932	32604	37764	
861	0	33944	32580	37788	
862	0	33932	32604	37812	
863	0	33922	32604	37820	
864	0	33928	32592	37804	
865	0	33922	32600	37800	
866	0	33928	32620	37832	
867	0	33920	32632	37836	
868	0	33928	32622	37816	
869	0	33944	32638	37834	
870	0	33924	32628	37820	
871	0	33936	32644	37828	
872	0	33916	32680	37840	
873	0	33928	32656	37844	
874	0	33920	32634	37828	
875	0	33916	32640	37824	
876	0	33912	32644	37848	
877	0	33920	32664	37832	
878	0	33928	32654	37824	
879	0	33916	32656	37816	
880	0	33936	32644	37824	
881	0	33924	32616	37840	
882	0	33920	32636	37824	
883	0	33940	32632	37828	
884	0	33936	32628	37836	
885	0	33948	32630	37852	
886	0	33944	32660	37840	
887	0	33956	32680	37840	
888	0	33946	32696	37856	
889	0	33952	32644	37916	
890	0	33980	32548	38020	
891	0	34004	32754	37688	
892	0	33940	32816	37732	
893	0	33912	32716	37852	
894	0	33888	32632	37856	
895	0	33904	32612	37824	
896	0	33932	32636	37800	
897	0	33920	32658	37816	
898	0	33914	32648	37804	
899	0	33904	32660	37832	
900	0	33928	32650	37826	
901	0	33932	32624	37836	
902	0	33960	32632	37828	
903	0	33948	32688	37772	
904	0	33936	32736	37792	
905	0	33920	32684	37840	
906	0	33916	32644	37868	
907	0	33912	32612	37856	
908	0	33928	32638	37816	
909	0	33936	32640	37818	
910	0	33920	32636	37806	
911	0	33920	32652	37828	
912	0	33932	32656	37816	
913	0	33916	32664	37776	
914	0	33914	32664	37760	
915	0	33905	32672	37784	
916	0	33908	32652	37784	
917	0	33908	32652	37828	
918	0	33904	32668	37800	
919	0	33928	32660	37824	
920	0	33904	32652	37812	
921	0	33920	32652	37792	
922	0	33920	32648	37764	
923	0	33940	32652	37788	
924	0	33916	32672	37796	
925	0	33920	32680	37780	
926	0	33908	32696	37804	
927	0	33920	32704	37848	
928	0	33912	32724	37824	
929	0	33912	32724	37828	
930	0	33912	32720	37876	
931	0	33896	32716	37896	
932	0	33922	32688	37860	
933	0	33892	32692	37840	
934	0	33882	32684	37804	
935	0	33884	32672	37788	
936	0	33888	32672	37788	
937	0	33884	32652	37780	
938	0	33892	32660	37800	
939	0	33896	32632	37800	
940	0	33880	32636	37764	
941	0	33880	32664	37768	
942	0	33892	32692	37820	
943	0	33888	32728	37824	
944	0	33884	32724	37872	
945	0	33896	32704	37832	
946	0	33908	32720	37820	
947	0	33904	32720	37840	
948	0	33908	32708	37844	
949	0	33884	32712	37864	
950	0	33888	32712	37832	
951	0	33900	32704	37844	
952	0	33896	32709	37828	
953	0	33896	32720	37768	
954	0	33900	32728	37788	
955	0	33902	32736	37784	
956	0	33904	32736	37820	
957	0	33900	32738	37832	
958	0	33888	32753	37804	
959	0	33896	32748	37780	
960	0	33880	32748	37820	
961	0	33896	32748	37840	
962	0	33892	32772	37828	
963	0	33900	32756	37804	
964	0	33900	32775	37824	
965	0	33904	32768	37832	
966	0	33908	32784	37792	
967	0	33912	32800	37828	
968	0	33912	32792	37868	
969	0	33912	32800	37812	
970	0	33908	32816	37812	
971	0	33900	32836	37852	
972	0	33904	32804	37860	
973	0	33896	32824	37860	
974	0	33912	32832	37844	
975	0	33912	32832	37848	
976	0	33908	32844	37836	
977	0	33892	32864	37844	
978	0	33888	32852	37804	
979	0	33896	32816	37808	
980	0	33880	32796	37800	
981	0	33868	32774	37792	
982	0	33868	32748	37748	
983	0	33876	32740	37756	
984	0	33876	32752	37780	
985	0	33880	32788	37748	
986	0	33896	32816	37804	
987	0	33900	32832	37848	
988	0	33932	32852	37848	
989	0	33920	32888	37876	
990	0	33916	32896	37864	
991	0	33908	32914	37904	
992	0	33908	32912	37868	
993	0	33920	32888	37844	
994	0	33904	32888	37824	
995	0	33892	32880	37812	
996	0	33904	32864	37856	
997	0	33904	32856	37844	
998	0	33892	32856	37840	
999	0	33888	32852	37804	
1000	0	33880	32824	37816	
1001	0	33876	32804	37824	
1002	0	33872	32824	37808	
1003	0	33860	32840	37820	
1004	0	33870	32848	37824	
1005	0	33880	32840	37792	
1006	0	33888	32844	37808	
1007	0	33872	32840	37784	
1008	0	33888	32848	37800	
1009	0	33896	32836	37780	
1010	0	33896	32864	37776	
1011	0	33896	32856	37784	
1012	0	33896	32888	37804	
1013	0	33882	32898	37824	
1014	0	33868	32888	37768	
1015	0	33872	32880	37808	
1016	0	33872	32880	37828	
1017	0	33872	32868	37836	
1018	0	33864	32864	37824	
1019	0	33868	32860	37824	
1020	0	33872	32864	37804	
1021	0	33864	32864	37792	
1022	0	33876	32878	37772	
1023	0	33876	32880	37796	
1024	0	33888	32884	37788	
1025	0	33904	32884	37776	
1026	0	33900	32896	37808	
1027	0	33900	32900	37832	
1028	0	33900	32922	37844	
1029	0	33904	32904	37844	
1030	0	33896	32908	37824	
1031	0	33896	32884	37832	
1032	0	33888	32864	37848	
1033	0	33884	32868	37812	
1034	0	33888	32844	37812	
1035	0	33888	32824	37812	
1036	0	33904	32800	37784	
1037	0	33916	32852	37680	
1038	0	33872	32820	37720	
1039	0	33836	32756	37780	
1040	0	33876	32716	37796	
1041	0	33884	32792	37776	
1042	0	33880	32840	37784	
1043	0	33892	32852	37796	
1044	0	33876	32848	37880	
1045	0	33896	32820	37904	
1046	0	33904	32848	37848	
1047	0	33888	32889	37824	
1048	0	33896	32904	37808	
1049	0	33920	32898	37826	
1050	0	33912	32872	37828	
1051	0	33904	32876	37804	
1052	0	33904	32864	37824	
1053	0	33888	32866	37824	
1054	0	33876	32846	37816	
1055	0	33880	32844	37808	
1056	0	33888	32832	37808	
1057	0	33880	32848	37772	
1058	0	33872	32880	37792	
1059	0	33880	32864	37808	
1060	0	33876	32864	37834	
1061	0	33868	32900	37884	
1062	0	33852	32912	37924	
1063	0	33860	32888	37892	
1064	0	33832	32880	37904	
1065	0	33844	32864	37892	
1066	0	33816	32884	37876	
1067	0	33820	32884	37888	
1068	0	33836	32860	37864	
1069	0	33848	32844	37844	
1070	0	33836	32842	37860	
1071	0	33824	32836	37872	
1072	0	33828	32832	37884	
1073	0	33808	32844	37920	
1074	0	33804	32864	37900	
1075	0	33812	32868	37908	
1076	0	33808	32888	37944	
1077	0	33828	32864	37872	
1078	0	33816	32856	37924	
1079	0	33812	32832	37880	
1080	0	33820	32844	37892	
1081	0	33816	32858	37864	
1082	0	33818	32848	37884	
1083	0	33812	32872	37908	
1084	0	33816	32888	37900	
1085	0	33808	32896	37912	
1086	0	33817	32892	37944	
1087	0	33804	32876	37944	
1088	0	33796	32852	37916	
1089	0	33800	32840	37868	
1090	0	33800	32808	37874	
1091	0	33788	32800	37844	
1092	0	33780	32772	37830	
1093	0	33772	32756	37828	
1094	0	33748	32756	37820	
1095	0	33752	32768	37812	
1096	0	33764	32772	37824	
1097	0	33760	32784	37828	
1098	0	33768	32775	37880	
1099	0	33760	32784	37914	
1100	0	33768	32748	37912	
1101	0	33772	32744	37852	
1102	0	33764	32762	37812	
1103	0	33768	32768	37836	
1104	0	33760	32780	37824	
1105	0	33736	32764	37810	
1106	0	33752	32728	37832	
1107	0	33740	32712	37826	
1108	0	33744	32704	37844	
1109	0	33732	32736	37848	
1110	0	33736	32740	37840	
1111	0	33736	32726	37840	
1112	0	33708	32768	37840	
1113	0	33712	32762	37860	
1114	0	33712	32776	37840	
1115	0	33720	32790	37864	
1116	0	33712	32782	37824	
1117	0	33696	32768	37872	
1118	0	33708	32756	37872	
1119	0	33708	32760	37864	
1120	0	33696	32784	37864	
1121	0	33698	32796	37864	
1122	0	33680	32792	37856	
1123	0	33680	32780	37832	
1124	0	33680	32792	37818	
1125	0	33664	32772	37828	
1126	0	33668	32780	37872	
1127	0	33668	32800	37832	
1128	0	33648	32800	37860	
1129	0	33640	32792	37852	
1130	0	33664	32824	37924	
1131	0	33676	32828	37908	
1132	0	33656	32778	37804	
1133	0	33664	32756	37792	
1134	0	33648	32760	37844	
1135	0	33646	32788	37895	
1136	0	33644	32796	37936	
1137	0	33648	32808	37892	
1138	0	33632	32808	37912	
1139	0	33648	32775	37870	
1140	0	33640	32788	37848	
1141	0	33628	32818	37848	
1142	0	33648	32812	37880	
1143	0	33628	32836	37920	
1144	0	33628	32808	37912	
1145	0	33604	32752	37856	
1146	0	33600	32722	37812	
1147	0	33592	32732	37812	
1148	0	33600	32728	37836	
1149	0	33604	32716	37852	
1150	0	33600	32728	37852	
1151	0	33620	32728	37848	
1152	0	33616	32756	37856	
1153	0	33620	32780	37904	
1154	0	33624	32760	37920	
1155	0	33628	32772	37916	
1156	0	33620	32762	37912	
1157	0	33610	32774	37916	
1158	0	33620	32764	37928	
1159	0	33608	32748	37876	
1160	0	33600	32708	37868	
1161	0	33608	32724	37872	
1162	0	33600	32720	37892	
1163	0	33594	32716	37888	
1164	0	33608	32712	37920	
1165	0	33600	32712	37928	
1166	0	33604	32728	37904	
1167	0	33580	32728	37900	
1168	0	33580	32720	37908	
1169	0	33576	32698	37900	
1170	0	33568	32672	37936	
1171	0	33556	32666	37916	
1172	0	33564	32660	37940	
1173	0	33568	32672	37912	
1174	0	33552	32690	37918	
1175	0	33544	32696	37940	
1176	0	33560	32696	37920	
1177	0	33556	32698	37944	
1178	0	33564	32700	37932	
1179	0	33584	32708	37956	
1180	0	33584	32716	37948	
1181	0	33580	32724	37952	
1182	0	33576	32736	37978	
1183	0	33580	32754	37976	
1184	0	33564	32748	37954	
1185	0	33572	32736	37956	
1186	0	33564	32740	37960	
1187	0	33568	32720	37944	
1188	0	33552	32704	37928	
1189	0	33552	32680	37904	
1190	0	33544	32664	37944	
1191	0	33524	32660	37940	
1192	0	33524	32664	37912	
1193	0	33512	32676	37892	
1194	0	33528	32654	37876	
1195	0	33536	32644	37876	
1196	0	33512	32660	37860	
1197	0	33532	32632	37890	
1198	0	33544	32632	37892	
1199	0	33524	32664	37888	
1200	0	33516	32666	37908	
1201	0	33504	32664	37932	
1202	0	33512	32644	37960	
1203	0	33496	32652	37976	
1204	0	33480	32608	37960	
1205	0	33452	32622	37944	
1206	0	33452	32624	37940	
1207	0	33436	32612	37932	
1208	0	33436	32604	37936	
1209	0	33432	32606	37904	
1210	0	33450	32616	37914	
1211	0	33436	32612	37940	
1212	0	33432	32628	37920	
1213	0	33428	32628	37932	
1214	0	33432	32632	37924	
1215	0	33440	32616	37920	
1216	0	33456	32580	37888	
1217	0	33464	32556	37820	
1218	0	33442	32456	37872	
1219	0	33428	32550	38032	
1220	0	33434	32592	38112	
1221	0	33432	32600	37978	
1222	0	33436	32584	37834	
1223	0	33412	32568	37832	
1224	0	33420	32548	37852	
1225	0	33428	32552	37888	
1226	0	33428	32556	37924	
1227	0	33432	32540	37960	
1228	0	33432	32528	37932	
1229	0	33444	32536	37912	
1230	0	33444	32540	37912	
1231	0	33444	32560	37904	
1232	0	33428	32562	37920	
1233	0	33426	32572	37952	
1234	0	33408	32564	37924	
1235	0	33406	32532	37896	
1236	0	33400	32512	37904	
1237	0	33396	32512	37876	
1238	0	33388	32496	37888	
1239	0	33376	32528	37912	
1240	0	33384	32516	37888	
1241	0	33384	32516	37892	
1242	0	33380	32516	37880	
1243	0	33368	32520	37892	
1244	0	33376	32504	37892	
1245	0	33380	32508	37900	
1246	0	33362	32516	37884	
1247	0	33364	32540	37876	
1248	0	33376	32524	37898	
1249	0	33368	32552	37908	
1250	0	33368	32568	37928	
1251	0	33360	32584	37920	
1252	0	33352	32616	37948	
1253	0	33352	32624	37952	
1254	0	33352	32612	37944	
1255	0	33344	32596	37944	
1256	0	33348	32588	37964	
1257	0	33344	32576	37928	
1258	0	33336	32560	37924	
1259	0	33328	32544	37892	
1260	0	33312	32544	37920	
1261	0	33308	32552	37884	
1262	0	33320	32552	37872	
1263	0	33344	32576	37912	
1264	0	33336	32576	37900	
1265	0	33352	32584	37920	
1266	0	33332	32560	37928	
1267	0	33320	32552	37920	
1268	0	33336	32544	37928	
1269	0	33336	32516	37908	
1270	0	33324	32516	37904	
1271	0	33322	32512	37912	
1272	0	33312	32529	37908	
1273	0	33324	32540	37920	
1274	0	33324	32564	37928	
1275	0	33344	32554	37944	
1276	0	33336	32572	37952	
1277	0	33332	32584	37920	
1278	0	33344	32592	37936	
1279	0	33340	32592	37992	
1280	0	33336	32580	37972	
1281	0	33352	32584	37956	
1282	0	33344	32608	37944	
1283	0	33352	32568	37936	
1284	0	33340	32580	37912	
1285	0	33352	32592	37936	
1286	0	33344	32600	37956	
1287	0	33348	32600	37956	
1288	0	33352	32584	37948	
1289	0	33329	32588	37920	
1290	0	33312	32588	37962	
1291	0	33304	32564	37912	
1292	0	33320	32536	37924	
1293	0	33312	32548	37916	
1294	0	33324	32548	37908	
1295	0	33320	32576	37924	
1296	0	33308	32596	37916	
1297	0	33296	32604	37932	
1298	0	33320	32588	37944	
1299	0	33320	32584	37900	
1300	0	33328	32572	37904	
1301	0	33296	32524	37868	
1302	0	33308	32480	37876	
1303	0	33292	32508	37880	
1304	0	33304	32540	37876	
1305	0	33304	32572	37916	
1306	0	33320	32596	37908	
1307	0	33304	32640	37908	
1308	0	33314	32669	37952	
1309	0	33316	32658	37972	
1310	0	33304	32680	38016	
1311	0	33296	32680	37976	
1312	0	33300	32672	37984	
1313	0	33304	32660	37984	
1314	0	33304	32652	37948	
1315	0	33276	32656	37976	
1316	0	33300	32652	37936	
1317	0	33268	32652	37960	
1318	0	33268	32630	37976	
1319	0	33256	32600	37944	
1320	0	33236	32584	38004	
1321	0	33256	32624	37956	
1322	0	33276	32660	37892	
1323	0	33296	32660	37872	
1324	0	33272	32640	37920	
1325	0	33268	32620	37964	
1326	0	33264	32652	37992	
1327	0	33240	32648	38000	
1328	0	33240	32636	37994	
1329	0	33242	32656	38020	
1330	0	33248	32656	38000	
1331	0	33248	32664	38000	
1332	0	33244	32660	37984	
1333	0	33236	32644	37984	
1334	0	33252	32636	38008	
1335	0	33240	32660	37976	
1336	0	33212	32648	38016	
1337	0	33220	32640	38032	
1338	0	33200	32640	38020	
1339	0	33184	32656	38012	
1340	0	33196	32660	37988	
1341	0	33180	32640	37960	
1342	0	33168	32636	37952	
1343	0	33160	32632	37968	
1344	0	33160	32616	37924	
1345	0	33172	32644	37872	
1346	0	33168	32616	37936	
1347	0	33160	32580	37992	
1348	0	33140	32560	38072	
1349	0	33140	32596	38020	
1350	0	33164	32656	37928	
1351	0	33196	32664	37872	
1352	0	33172	32612	37868	
1353	0	33172	32574	37916	
1354	0	33160	32560	37976	
1355	0	33148	32576	37984	
1356	0	33148	32602	37960	
1357	0	33144	32596	37940	
1358	0	33116	32592	37916	
1359	0	33116	32608	37924	
1360	0	33120	32628	37936	
1361	0	33104	32634	37968	
1362	0	33092	32641	37976	
1363	0	33112	32660	37992	
1364	0	33112	32668	38020	
1365	0	33108	32684	38028	
1366	0	33108	32676	38016	
1367	0	33112	32656	38012	
1368	0	33072	32688	38040	
1369	0	33072	32696	38024	
1370	0	33064	32688	38032	
1371	0	33056	32696	38008	
1372	0	33064	32688	37992	
1373	0	33048	32680	38016	
1374	0	33048	32656	38000	
1375	0	33048	32668	37968	
1376	0	33040	32664	37960	
1377	0	33020	32664	37952	
1378	0	33024	32632	37984	
1379	0	33032	32620	37972	
1380	0	33016	32584	37936	
1381	0	33012	32580	37924	
1382	0	33004	32576	37936	
1383	0	32986	32600	37972	
1384	0	33008	32600	37964	
1385	0	32984	32616	37980	
1386	0	32992	32650	37984	
1387	0	32980	32668	38004	
1388	0	32976	32680	38000	
1389	0	32972	32688	37996	
1390	0	32968	32660	38024	
1391	0	32956	32636	38016	
1392	0	32952	32624	37984	
1393	0	32944	32628	38012	
1394	0	32940	32640	37989	
1395	0	32924	32624	37982	
1396	0	32928	32610	37936	
1397	0	32920	32592	37932	
1398	0	32912	32570	37964	
1399	0	32916	32576	37944	
1400	0	32904	32584	37900	
1401	0	32892	32588	37936	
1402	0	32892	32596	37952	
1403	0	32896	32616	37976	
1404	0	32880	32624	37976	
1405	0	32872	32636	38004	
1406	0	32872	32640	37976	
1407	0	32852	32652	37984	
1408	0	32844	32648	37988	
1409	0	32834	32660	37972	
1410	0	32848	32640	37992	
1411	0	32820	32620	38008	
1412	0	32820	32628	37988	
1413	0	32816	32604	37984	
1414	0	32800	32614	37976	
1415	0	32796	32592	37984	
1416	0	32800	32620	37976	
1417	0	32816	32622	37976	
1418	0	32812	32640	37992	
1419	0	32810	32644	37984	
1420	0	32808	32638	38016	
1421	0	32808	32636	38008	
1422	0	32784	32648	38000	
1423	0	32780	32672	38016	
1424	0	32784	32688	38044	
1425	0	32778	32688	38028	
1426	0	32776	32672	38020	
1427	0	32788	32668	38012	
1428	0	32788	32632	38008	
1429	0	32794	32592	38000	
1430	0	32780	32600	37992	
1431	0	32768	32594	37976	
1432	0	32792	32596	37968	
1433	0	32776	32612	37928	
1434	0	32784	32588	37944	
1435	0	32792	32596	37960	
1436	0	32808	32593	37988	
1437	0	32816	32584	37968	
1438	0	32816	32580	37964	
1439	0	32812	32596	37978	
1440	0	32800	32589	37976	
1441	0	32796	32592	37964	
1442	0	32796	32568	37980	
1443	0	32804	32572	37948	
1444	0	32802	32576	37968	
1445	0	32768	32592	37972	
1446	0	32792	32588	37976	
1447	0	32792	32576	37976	
1448	0	32776	32592	37976	
1449	0	32784	32620	38004	
1450	0	32792	32632	37988	
1451	0	32778	32670	38020	
1452	0	32784	32668	38004	
1453	0	32784	32658	38032	
1454	0	32796	32640	38028	
1455	0	32808	32632	38036	
1456	0	32788	32632	37996	
1457	0	32784	32628	37992	
1458	0	32772	32642	38016	
1459	0	32760	32632	37984	
1460	0	32768	32592	37988	
1461	0	32752	32572	37968	
1462	0	32748	32576	37976	
1463	0	32744	32584	37980	
1464	0	32744	32596	38032	
1465	0	32740	32584	38032	
1466	0	32736	32604	38024	
1467	0	32740	32616	38026	
1468	0	32760	32604	38036	
1469	0	32748	32628	38008	
1470	0	32760	32636	38028	
1471	0	32744	32652	38048	
1472	0	32740	32676	38032	
1473	0	32736	32664	38020	
1474	0	32744	32644	38016	
1475	0	32748	32624	38024	
1476	0	32744	32608	37984	
1477	0	32740	32584	37996	
1478	0	32728	32577	37988	
1479	0	32716	32568	37984	
1480	0	32712	32570	37968	
1481	0	32708	32588	37952	
1482	0	32704	32580	37984	
1483	0	32696	32572	38016	
1484	0	32704	32568	38016	
1485	0	32704	32576	38016	
1486	0	32696	32572	37980	
1487	0	32688	32536	37956	
1488	0	32692	32548	37976	
1489	0	32688	32570	37972	
1490	0	32676	32600	37980	
1491	0	32672	32610	37992	
1492	0	32672	32608	37980	
1493	0	32676	32554	38000	
1494	0	32688	32560	38000	
1495	0	32700	32560	37996	
1496	0	32688	32552	38016	
1497	0	32677	32552	38016	
1498	0	32684	32560	38016	
1499	0	32672	32548	38020	
1500	0	32652	32576	38000	
1501	0	32640	32572	38024	
1502	0	32632	32600	38034	
1503	0	32636	32620	38036	
1504	0	32628	32608	38048	
1505	0	32644	32612	38032	
1506	0	32640	32596	38024	
1507	0	32632	32600	38024	
1508	0	32624	32592	38012	
1509	0	32600	32596	37982	
1510	0	32616	32576	37960	
1511	0	32628	32556	37936	
1512	0	32628	32544	37988	
1513	0	32612	32556	38004	
1514	0	32620	32576	37996	
1515	0	32596	32576	38012	
1516	0	32592	32604	38030	
1517	0	32600	32604	37988	
1518	0	32596	32592	38008	
1519	0	32588	32606	38024	
1520	0	32580	32592	38036	
1521	0	32588	32572	37980	
1522	0	32572	32560	37976	
1523	0	32572	32552	37968	
1524	0	32556	32536	37960	
1525	0	32568	32538	37952	
1526	0	32556	32557	37964	
1527	0	32544	32584	37996	
1528	0	32548	32577	37984	
1529	0	32532	32588	38008	
1530	0	32520	32584	38004	
1531	0	32532	32560	37992	
1532	0	32520	32548	37952	
1533	0	32528	32500	37944	
1534	0	32528	32504	37976	
1535	0	32532	32512	37958	
1536	0	32517	32528	37934	
1537	0	32524	32522	37940	
1538	0	32520	32544	37940	
1539	0	32520	32532	37968	
1540	0	32516	32564	37968	
1541	0	32520	32537	37984	
1542	0	32528	32508	38000	
1543	0	32536	32524	37988	
1544	0	32536	32556	37968	
1545	0	32528	32540	37952	
1546	0	32536	32556	37952	
1547	0	32520	32552	37948	
1548	0	32528	32528	37928	
1549	0	32512	32525	37920	
1550	0	32512	32560	37932	
1551	0	32512	32556	37952	
1552	0	32504	32584	37980	
1553	0	32482	32604	38000	
1554	0	32492	32620	38012	
1555	0	32472	32624	38028	
1556	0	32488	32624	38044	
1557	0	32476	32592	38026	
1558	0	32490	32572	38000	
1559	0	32472	32566	37960	
1560	0	32468	32572	37960	
1561	0	32480	32576	37972	
1562	0	32472	32576	37980	
1563	0	32456	32590	37976	
1564	0	32460	32612	37996	
1565	0	32448	32610	38008	
1566	0	32476	32604	38004	
1567	0	32464	32584	38012	
1568	0	32444	32608	38020	
1569	0	32432	32612	38008	
1570	0	32448	32600	38012	
1571	0	32444	32592	38000	
1572	0	32449	32576	37976	
1573	0	32448	32576	37984	
1574	0	32452	32560	37980	
1575	0	32436	32572	37968	
1576	0	32424	32568	37980	
1577	0	32436	32544	37964	
1578	0	32424	32552	38000	
1579	0	32412	32576	37976	
1580	0	32432	32552	37988	
1581	0	32424	32560	37980	
1582	0	32418	32570	37976	
1583	0	32432	32558	37964	
1584	0	32436	32568	37968	
1585	0	32424	32576	37952	
1586	0	32428	32572	37984	
1587	0	32408	32584	37992	
1588	0	32412	32580	37984	
1589	0	32392	32578	38004	
1590	0	32412	32584	37996	
1591	0	32388	32564	38008	
1592	0	32400	32560	37952	
1593	0	32412	32560	37940	
1594	0	32384	32556	37956	
1595	0	32384	32536	37952	
1596	0	32380	32536	37976	
1597	0	32372	32532	37968	
1598	0	32380	32528	37960	
1599	0	32360	32532	37948	
1600	0	32368	32536	37936	
1601	0	32376	32520	37928	
1602	0	32368	32532	37964	
1603	0	32378	32522	37988	
1604	0	32382	32540	37992	
1605	0	32364	32560	38000	
1606	0	32368	32564	37984	
1607	0	32376	32580	38000	
1608	0	32384	32568	38032	
1609	0	32352	32592	38018	
1610	0	32372	32584	38032	
1611	0	32376	32572	38032	
1612	0	32372	32568	38032	
1613	0	32360	32584	38008	
1614	0	32348	32576	38016	
1615	0	32360	32596	38032	
1616	0	32360	32580	38016	
1617	0	32368	32568	38036	
1618	0	32376	32568	38012	
1619	0	32344	32584	38014	
1620	0	32360	32568	38024	
1621	0	32352	32565	38016	
1622	0	32352	32556	37992	
1623	0	32360	32560	38000	
1624	0	32368	32536	38000	
1625	0	32368	32556	37984	
1626	0	32360	32568	37992	
1627	0	32360	32570	37984	
1628	0	32364	32560	38008	
1629	0	32392	32556	37992	
1630	0	32376	32544	38000	
1631	0	32362	32540	37980	
1632	0	32360	32524	37992	
1633	0	32368	32520	37984	
1634	0	32376	32504	37968	
1635	0	32388	32488	37964	
1636	0	32392	32496	37944	
1637	0	32396	32512	37984	
1638	0	32400	32536	37972	
1639	0	32404	32544	38000	
1640	0	32392	32568	37980	
1641	0	32396	32562	37992	
1642	0	32388	32556	37996	
1643	0	32396	32552	37992	
1644	0	32380	32544	38012	
1645	0	32400	32540	37988	
1646	0	32408	32504	37976	
1647	0	32420	32504	37972	
1648	0	32416	32518	37964	
1649	0	32384	32520	37980	
1650	0	32396	32536	37976	
1651	0	32394	32528	37972	
1652	0	32392	32518	37968	
1653	0	32400	32538	37996	
1654	0	32394	32552	37970	
1655	0	32400	32560	37984	
1656	0	32416	32560	37980	
1657	0	32396	32544	38008	
1658	0	32392	32560	37996	
1659	0	32408	32544	38016	
1660	0	32408	32524	37996	
1661	0	32392	32528	37996	
1662	0	32392	32544	37988	
1663	0	32400	32576	38040	
1664	0	32388	32588	38072	
1665	0	32400	32584	38076	
1666	0	32376	32592	38068	
1667	0	32404	32592	38056	
1668	0	32394	32600	38068	
1669	0	32400	32604	38048	
1670	0	32384	32608	38080	
1671	0	32392	32608	38072	
1672	0	32404	32586	38064	
1673	0	32396	32576	38040	
1674	0	32400	32548	38036	
1675	0	32396	32564	38060	
1676	0	32396	32556	38025	
1677	0	32404	32568	38040	
1678	0	32400	32584	38016	
1679	0	32404	32576	37980	
1680	0	32420	32548	37988	
1681	0	32424	32552	38004	
1682	0	32424	32552	38020	
1683	0	32432	32532	37988	
1684	0	32426	32508	37976	
1685	0	32420	32464	37952	
1686	0	32440	32444	37936	
1687	0	32428	32416	37936	
1688	0	32412	32428	37932	
1689	0	32432	32446	37928	
1690	0	32418	32460	37928	
1691	0	32416	32464	37888	
1692	0	32408	32480	37908	
1693	0	32408	32476	37940	
1694	0	32396	32468	37952	
1695	0	32398	32464	37936	
1696	0	32404	32460	37920	
1697	0	32420	32472	37924	
1698	0	32436	32469	37920	
1699	0	32412	32492	37908	
1700	0	32416	32484	37930	
1701	0	32416	32492	37932	
1702	0	32428	32480	37930	
1703	0	32416	32480	37948	
1704	0	32428	32504	37940	
1705	0	32424	32472	37934	
1706	0	32424	32488	37920	
1707	0	32432	32476	37924	
1708	0	32428	32492	37928	
1709	0	32432	32496	37952	
1710	0	32430	32516	37956	
1711	0	32416	32524	37992	
1712	0	32408	32536	38020	
1713	0	32416	32544	38016	
1714	0	32428	32568	38032	
1715	0	32420	32600	38020	
1716	0	32402	32596	38060	
1717	0	32404	32600	38032	
1718	0	32392	32592	38028	
1719	0	32404	32594	38032	
1720	0	32392	32596	38032	
1721	0	32408	32572	38024	
1722	0	32420	32536	38024	
1723	0	32416	32552	38024	
1724	0	32412	32556	38024	
1725	0	32400	32564	38020	
1726	0	32424	32552	38028	
1727	0	32400	32556	38032	
1728	0	32412	32560	38032	
1729	0	32404	32556	38000	
1730	0	32416	32556	37976	
1731	0	32424	32538	37980	
1732	0	32416	32520	37988	
1733	0	32416	32488	37960	
1734	0	32408	32468	37960	
1735	0	32416	32444	37976	
1736	0	32424	32440	37980	
1737	0	32424	32472	37952	
1738	0	32436	32488	37952	
1739	0	32432	32488	37948	
1740	0	32432	32508	37972	
1741	0	32420	32514	37984	
1742	0	32404	32524	38000	
1743	0	32424	32512	37980	
1744	0	32424	32504	37992	
1745	0	32416	32532	37980	
1746	0	32400	32524	37960	
1747	0	32400	32532	37944	
1748	0	32404	32528	37948	
1749	0	32420	32492	37956	
1750	0	32420	32476	37916	
1751	0	32394	32484	37928	
1752	0	32408	32492	37928	
1753	0	32400	32512	37972	
1754	0	32400	32536	37962	
1755	0	32404	32576	37960	
1756	0	32400	32600	38000	
1757	0	32392	32604	37988	
1758	0	32396	32604	37960	
1759	0	32412	32576	37984	
1760	0	32416	32552	38024	
1761	0	32404	32538	38020	
1762	0	32424	32544	38022	
1763	0	32400	32568	38000	
1764	0	32408	32592	38008	
1765	0	32408	32632	38004	
1766	0	32410	32648	38028	
1767	0	32416	32656	38020	
1768	0	32412	32684	38072	
1769	0	32400	32680	38076	
1770	0	32412	32668	38060	
1771	0	32418	32652	38068	
1772	0	32424	32644	38032	
1773	0	32448	32652	38036	
1774	0	32436	32660	38040	
1775	0	32436	32652	38056	
1776	0	32432	32666	38002	
1777	0	32448	32648	37992	
1778	0	32428	32668	37960	
1779	0	32440	32648	37968	
1780	0	32432	32632	37976	
1781	0	32432	32612	37980	
1782	0	32448	32612	37980	
1783	0	32452	32576	37932	
1784	0	32432	32548	37920	
1785	0	32448	32520	37896	
1786	0	32472	32528	37900	
1787	0	32474	32544	37866	
1788	0	32468	32588	37884	
1789	0	32476	32604	37914	
1790	0	32468	32644	37960	
1791	0	32460	32644	37952	
1792	0	32460	32628	37960	
1793	0	32468	32618	37960	
1794	0	32448	32644	37936	
1795	0	32460	32672	37968	
1796	0	32444	32680	37956	
1797	0	32452	32706	37984	
1798	0	32448	32725	37960	
1799	0	32436	32744	37980	
1800	0	32440	32740	37998	
1801	0	32426	32744	38012	
1802	0	32432	32740	37996	
1803	0	32424	32752	37976	
1804	0	32428	32740	37992	
1805	0	32432	32740	37972	
1806	0	32440	32728	37992	
1807	0	32432	32736	37976	
1808	0	32444	32720	37980	
1809	0	32424	32736	37976	
1810	0	32424	32754	37984	
1811	0	32440	32772	37940	
1812	0	32420	32784	37968	
1813	0	32424	32768	37972	
1814	0	32424	32740	38000	
1815	0	32426	32716	38008	
1816	0	32432	32712	37980	
1817	0	32416	32752	37940	
1818	0	32418	32752	37920	
1819	0	32424	32780	37936	
1820	0	32416	32808	37952	
1821	0	32448	32832	37960	
1822	0	32452	32840	37992	
1823	0	32460	32852	37992	
1824	0	32448	32872	38014	
1825	0	32460	32864	38008	
1826	0	32464	32888	38044	
1827	0	32472	32884	38056	
1828	0	32472	32904	38024	
1829	0	32472	32900	38004	
1830	0	32476	32880	38010	
1831	0	32460	32888	37992	
1832	0	32464	32874	37984	
1833	0	32464	32848	37940	
1834	0	32460	32872	37969	
1835	0	32452	32902	37968	
1836	0	32464	32920	38008	
1837	0	32472	32888	37984	
1838	0	32496	32852	37946	
1839	0	32484	32836	37905	
1840	0	32480	32872	37948	
1841	0	32464	32912	37956	
1842	0	32464	32932	37968	
1843	0	32456	32936	37996	
1844	0	32440	32924	37948	
1845	0	32434	32916	38000	
1846	0	32452	32928	38020	
1847	0	32444	32940	38028	
1848	0	32474	32952	38020	
1849	0	32452	32960	37984	
1850	0	32472	32960	37960	
1851	0	32472	32948	37948	
1852	0	32448	32924	37968	
1853	0	32464	32904	37948	
1854	0	32444	32924	37948	
1855	0	32440	32908	37936	
1856	0	32412	32892	37944	
1857	0	32416	32904	37924	
1858	0	32432	32920	37892	
1859	0	32412	32948	37908	
1860	0	32429	32964	37956	
1861	0	32448	32988	37938	
1862	0	32408	32988	37928	
1863	0	32432	32992	37972	
1864	0	32440	33000	37950	
1865	0	32432	32976	37968	
1866	0	32440	32968	37952	
1867	0	32440	32964	37944	
1868	0	32444	32984	37960	
1869	0	32432	33024	37984	
1870	0	32444	33060	37984	
1871	0	32464	33054	37992	
1872	0	32440	33080	38000	
1873	0	32460	33064	38028	
1874	0	32456	33084	38012	
1875	0	32456	33108	38004	
1876	0	32440	33124	37988	
1877	0	32448	33124	37992	
1878	0	32456	33120	38000	
1879	0	32440	33168	37976	
1880	0	32448	33152	37972	
1881	0	32480	33050	37956	
1882	0	32492	33024	37988	
1883	0	32484	33032	37952	
1884	0	32492	33060	37972	
1885	0	32492	33060	37956	
1886	0	32488	33090	37960	
1887	0	32496	33108	37980	
1888	0	32504	33136	37984	
1889	0	32512	33144	37952	
1890	0	32512	33136	37968	
1891	0	32540	33144	37960	
1892	0	32540	33144	37946	
1893	0	32560	33122	37948	
1894	0	32576	33108	37920	
1895	0	32564	33112	37948	
1896	0	32576	33120	37924	
1897	0	32572	33120	37948	
1898	0	32592	33156	37912	
1899	0	32584	33164	37948	
1900	0	32564	33190	37956	
1901	0	32584	33200	38004	
1902	0	32588	33208	37994	
1903	0	32592	33200	38008	
1904	0	32568	33192	37984	
1905	0	32568	33184	37984	
1906	0	32560	33180	37974	
1907	0	32556	33168	37952	
1908	0	32568	33178	37924	
1909	0	32552	33200	37960	
1910	0	32564	33194	37964	
1911	0	32568	33172	37972	
1912	0	32560	33156	37952	
1913	0	32570	33178	37938	
1914	0	32584	33208	37904	
1915	0	32568	33230	37904	
1916	0	32568	33208	37908	
1917	0	32560	33204	37920	
1918	0	32580	33216	37968	
1919	0	32564	33244	37960	
1920	0	32552	33264	37944	
1921	0	32556	33272	37932	
1922	0	32556	33252	37900	
1923	0	32576	33264	37912	
1924	0	32564	33252	37960	
1925	0	32568	33264	37984	
1926	0	32568	33252	37956	
1927	0	32596	33264	37964	
1928	0	32584	33276	37956	
1929	0	32572	33308	38008	
1930	0	32592	33292	37984	
1931	0	32586	33300	37984	
1932	0	32600	33286	37984	
1933	0	32600	33284	38002	
1934	0	32602	33260	37964	
1935	0	32600	33264	37976	
1936	0	32584	33262	37972	
1937	0	32584	33300	37948	
1938	0	32576	33266	37936	
1939	0	32596	33268	37912	
1940	0	32592	33252	37940	
1941	0	32596	33240	37944	
1942	0	32604	33252	37972	
1943	0	32600	33272	37936	
1944	0	32592	33264	37946	
1945	0	32580	33272	37890	
1946	0	32577	33276	37932	
1947	0	32584	33264	37944	
1948	0	32612	33264	37912	
1949	0	32592	33272	37916	
1950	0	32592	33340	37936	
1951	0	32608	33344	37960	
1952	0	32596	33344	38000	
1953	0	32596	33352	37976	
1954	0	32604	33344	37984	
1955	0	32608	33352	38014	
1956	0	32592	33356	38004	
1957	0	32584	33352	37964	
1958	0	32584	33364	37956	
1959	0	32576	33356	37948	
1960	0	32570	33356	37960	
1961	0	32568	33364	37936	
1962	0	32564	33360	37940	
1963	0	32560	33356	37916	
1964	0	32568	33340	37888	
1965	0	32544	33348	37888	
1966	0	32544	33336	37908	
1967	0	32544	33336	37928	
1968	0	32548	33298	37936	
1969	0	32544	33300	37892	
1970	0	32554	33276	37888	
1971	0	32548	33296	37876	
1972	0	32536	33272	37860	
1973	0	32548	33268	37852	
1974	0	32552	33284	37844	
1975	0	32560	33292	37844	
1976	0	32560	33296	37848	
1977	0	32564	33284	37844	
1978	0	32552	33296	37868	
1979	0	32564	33320	37864	
1980	0	32538	33324	37876	
1981	0	32528	33334	37902	
1982	0	32520	33376	37856	
1983	0	32496	33404	37864	
1984	0	32500	33428	37896	
1985	0	32476	33428	37960	
1986	0	32536	33532	37840	
1987	0	32544	33532	37840	
1988	0	32544	33480	37880	
1989	0	32524	33440	37888	
1990	0	32496	33460	37932	
1991	0	32500	33464	37932	
1992	0	32500	33484	37896	
1993	0	32504	33504	37894	
1994	0	32488	33530	37892	
1995	0	32480	33528	37892	
1996	0	32468	33508	37876	
1997	0	32476	33476	37892	
1998	0	32472	33472	37880	
1999	0	32464	33500	37894	
2000	0	32466	33528	37896	
2001	0	32468	33536	37880	
2002	0	32480	33552	37884	
2003	0	32468	33544	37872	
2004	0	32480	33524	37836	
2005	0	32452	33496	37846	
2006	0	32448	33472	37932	
2007	0	32456	33480	37884	
2008	0	32456	33504	37908	
2009	0	32448	33520	37892	
2010	0	32452	33576	37884	
2011	0	32448	33596	37884	
2012	0	32468	33612	37944	
2013	0	32492	33610	37920	
2014	0	32488	33596	37900	
2015	0	32488	33584	37896	
2016	0	32468	33588	37900	
2017	0	32460	33604	37880	
2018	0	32440	33608	37880	
2019	0	32456	33594	37880	
2020	0	32460	33616	37884	
2021	0	32448	33636	37904	
2022	0	32452	33628	37892	
2023	0	32444	33644	37880	
2024	0	32436	33648	37860	
2025	0	32448	33658	37860	
2026	0	32436	33648	37856	
2027	0	32432	33632	37836	
2028	0	32428	33632	37844	
2029	0	32432	33604	37792	
2030	0	32408	33620	37808	
2031	0	32418	33596	37844	
2032	0	32428	33572	37804	
2033	0	32424	33596	37820	
2034	0	32418	33600	37825	
2035	0	32416	33608	37812	
2036	0	32424	33620	37820	
2037	0	32432	33636	37824	
2038	0	32420	33632	37796	
2039	0	32424	33640	37808	
2040	0	32428	33624	37820	
2041	0	32440	33632	37788	
2042	0	32448	33636	37792	
2043	0	32456	33620	37794	
2044	0	32436	33644	37824	
2045	0	32428	33656	37832	
2046	0	32440	33656	37816	
2047	0	32424	33664	37852	
2048	0	32440	33676	37844	
2049	0	32432	33704	37852	
2050	0	32424	33708	37848	
2051	0	32448	33712	37820	
2052	0	32432	33704	37800	
2053	0	32408	33712	37792	
2054	0	32413	33712	37832	
2055	0	32424	33744	37816	
2056	0	32418	33756	37800	
2057	0	32428	33760	37824	
2058	0	32416	33744	37792	
2059	0	32436	33728	37772	
2060	0	32432	33740	37792	
2061	0	32440	33768	37808	
2062	0	32448	33784	37808	
2063	0	32464	33788	37836	
2064	0	32464	33792	37828	
2065	0	32444	33818	37836	
2066	0	32456	33808	37828	
2067	0	32432	33840	37812	
2068	0	32432	33840	37840	
2069	0	32464	33840	37812	
2070	0	32472	33824	37800	
2071	0	32480	33820	37824	
2072	0	32466	33808	37800	
2073	0	32456	33820	37808	
2074	0	32460	33812	37816	
2075	0	32460	33828	37824	
2076	0	32448	33852	37812	
2077	0	32464	33856	37816	
2078	0	32456	33864	37818	
2079	0	32456	33888	37788	
2080	0	32469	33872	37808	
2081	0	32464	33856	37824	
2082	0	32472	33860	37824	
2083	0	32474	33848	37802	
2084	0	32464	33852	37784	
2085	0	32460	33848	37788	
2086	0	32474	33826	37776	
2087	0	32468	33832	37808	
2088	0	32464	33828	37808	
2089	0	32480	33832	37800	
2090	0	32476	33852	37792	
2091	0	32480	33880	37816	
2092	0	32452	33900	37832	
2093	0	32480	33892	37800	
2094	0	32472	33880	37788	
2095	0	32472	33888	37792	
2096	0	32480	33876	37762	
2097	0	32488	33872	37776	
2098	0	32480	33868	37772	
2099	0	32504	33866	37768	
2100	0	32492	33892	37752	
2101	0	32492	33888	37764	
2102	0	32488	33920	37768	
2103	0	32488	33908	37780	
2104	0	32488	33912	37786	
2105	0	32508	33912	37792	
2106	0	32492	33944	37760	
2107	0	32496	33936	37752	
2108	0	32496	33920	37744	
2109	0	32504	33936	37728	
2110	0	32488	33924	37722	
2111	0	32488	33956	37752	
2112	0	32484	33968	37772	
2113	0	32500	33936	37756	
2114	0	32496	33900	37768	
2115	0	32488	33896	37752	
2116	0	32488	33881	37732	
2117	0	32490	33900	37740	
2118	0	32504	33936	37768	
2119	0	32496	33976	37750	
2120	0	32492	33972	37770	
2121	0	32492	33968	37772	
2122	0	32496	33992	37768	
2123	0	32508	33980	37784	
2124	0	32504	33976	37776	
2125	0	32520	33980	37784	
2126	0	32508	33984	37736	
2127	0	32512	34004	37756	
2128	0	32520	34016	37748	
2129	0	32520	34042	37760	
2130	0	32516	34045	37772	
2131	0	32512	34040	37776	
2132	0	32524	34020	37744	
2133	0	32520	34024	37768	
2134	0	32504	34028	37748	
2135	0	32496	34024	37740	
2136	0	32496	34004	37736	
2137	0	32512	33988	37716	
2138	0	32512	34008	37716	
2139	0	32516	34018	37730	
2140	0	32512	34024	37728	
2141	0	32522	34016	37728	
2142	0	32504	34010	37724	
2143	0	32504	33992	37748	
2144	0	32524	33960	37748	
2145	0	32524	33976	37728	
2146	0	32536	33972	37724	
2147	0	32532	34006	37728	
2148	0	32508	34024	37736	
2149	0	32520	34040	37758	
2150	0	32512	34068	37780	
2151	0	32524	34080	37764	
2152	0	32528	34096	37756	
2153	0	32512	34104	37756	
2154	0	32536	34096	37744	
2155	0	32528	34084	37724	
2156	0	32532	34086	37716	
2157	0	32516	34096	37736	
2158	0	32544	34092	37712	
2159	0	32528	34100	37724	
2160	0	32532	34096	37740	
2161	0	32536	34100	37736	
2162	0	32536	34104	37688	
2163	0	32538	34080	37696	
2164	0	32512	34100	37684	
2165	0	32512	34112	37720	
2166	0	32520	34128	37740	
2167	0	32516	34134	37708	
2168	0	32504	34132	37708	
2169	0	32512	34120	37688	
2170	0	32496	34116	37692	
2171	0	32498	34116	37690	
2172	0	32500	34104	37680	
2173	0	32528	34132	37672	
2174	0	32544	34148	37700	
2175	0	32556	34152	37680	
2176	0	32552	34136	37672	
2177	0	32528	34116	37682	
2178	0	32528	34120	37664	
2179	0	32528	34120	37680	
2180	0	32544	34144	37648	
2181	0	32536	34152	37652	
2182	0	32544	34160	37680	
2183	0	32552	34164	37672	
2184	0	32546	34156	37660	
2185	0	32552	34156	37660	
2186	0	32540	34165	37640	
2187	0	32552	34172	37648	
2188	0	32536	34180	37652	
2189	0	32544	34196	37688	
2190	0	32548	34216	37672	
2191	0	32536	34236	37660	
2192	0	32524	34252	37664	
2193	0	32532	34280	37644	
2194	0	32544	34288	37664	
2195	0	32536	34300	37652	
2196	0	32544	34308	37680	
2197	0	32536	34288	37656	
2198	0	32528	34300	37664	
2199	0	32536	34280	37660	
2200	0	32528	34252	37648	
2201	0	32512	34184	37568	
2202	0	32504	34244	37616	
2203	0	32512	34288	37668	
2204	0	32492	34332	37656	
2205	0	32512	34328	37632	
2206	0	32512	34311	37660	
2207	0	32532	34320	37656	
2208	0	32512	34316	37632	
2209	0	32520	34296	37632	
2210	0	32528	34288	37644	
2211	0	32516	34322	37656	
2212	0	32516	34336	37676	
2213	0	32520	34348	37648	
2214	0	32532	34364	37636	
2215	0	32540	34336	37632	
2216	0	32512	34378	37624	
2217	0	32512	34388	37644	
2218	0	32512	34410	37644	
2219	0	32520	34404	37624	
2220	0	32528	34416	37624	
2221	0	32540	34416	37584	
2222	0	32548	34426	37604	
2223	0	32556	34384	37604	
2224	0	32552	34392	37608	
2225	0	32548	34392	37616	
2226	0	32532	34408	37596	
2227	0	32552	34408	37640	
2228	0	32548	34386	37624	
2229	0	32552	34364	37608	
2230	0	32536	34380	37564	
2231	0	32528	34392	37596	
2232	0	32544	34408	37560	
2233	0	32536	34420	37576	
2234	0	32536	34444	37576	
2235	0	32552	34448	37560	
2236	0	32552	34440	37584	
2237	0	32552	34432	37568	
2238	0	32548	34444	37578	
2239	0	32540	34472	37574	
2240	0	32544	34476	37592	
2241	0	32544	34500	37588	
2242	0	32540	34536	37552	
2243	0	32540	34536	37554	
2244	0	32536	34524	37556	
2245	0	32532	34536	37560	
2246	0	32528	34528	37556	
2247	0	32504	34532	37560	
2248	0	32528	34512	37572	
2249	0	32528	34508	37548	
2250	0	32520	34524	37532	
2251	0	32528	34512	37528	
2252	0	32510	34512	37528	
2253	0	32500	34528	37524	
2254	0	32512	34536	37528	
2255	0	32512	34548	37532	
2256	0	32512	34573	37552	
2257	0	32520	34584	37530	
2258	0	32512	34580	37516	
2259	0	32504	34592	37516	
2260	0	32522	34566	37504	
2261	0	32524	34564	37508	
2262	0	32528	34556	37532	
2263	0	32504	34580	37552	
2264	0	32504	34608	37532	
2265	0	32516	34624	37524	
2266	0	32516	34640	37532	
2267	0	32536	34648	37544	
2268	0	32504	34648	37520	
2269	0	32512	34648	37540	
2270	0	32508	34656	37524	
2271	0	32516	34648	37484	
2272	0	32528	34616	37480	
2273	0	32538	34632	37476	
2274	0	32532	34628	37476	
2275	0	32524	34640	37484	
2276	0	32516	34652	37508	
2277	0	32528	34652	37528	
2278	0	32528	34656	37500	
2279	0	32508	34650	37496	
2280	0	32516	34648	37496	
2281	0	32520	34660	37472	
2282	0	32512	34688	37460	
2283	0	32516	34712	37428	
2284	0	32536	34740	37428	
2285	0	32520	34710	37448	
2286	0	32516	34692	37456	
2287	0	32512	34680	37468	
2288	0	32520	34692	37448	
2289	0	32506	34696	37440	
2290	0	32504	34704	37464	
2291	0	32504	34712	37440	
2292	0	32512	34712	37416	
2293	0	32528	34720	37448	
2294	0	32524	34764	37432	
2295	0	32544	34756	37424	
2296	0	32536	34760	37412	
2297	0	32528	34744	37432	
2298	0	32532	34716	37416	
2299	0	32524	34720	37444	
2300	0	32536	34732	37452	
2301	0	32516	34752	37432	
2302	0	32506	34762	37432	
2303	0	32520	34760	37448	
2304	0	32524	34768	37436	
2305	0	32528	34780	37428	
2306	0	32544	34776	37424	
2307	0	32536	34764	37388	
2308	0	32536	34752	37364	
2309	0	32536	34744	37404	
2310	0	32536	34728	37400	
2311	0	32528	34728	37424	
2312	0	32537	34740	37416	
2313	0	32520	34780	37420	
2314	0	32520	34790	37416	
2315	0	32516	34808	37406	
2316	0	32524	34822	37382	
2317	0	32512	34832	37376	
2318	0	32508	34830	37376	
2319	0	32512	34816	37383	
2320	0	32520	34840	37382	
2321	0	32520	34840	37380	
2322	0	32536	34823	37400	
2323	0	32512	34844	37376	
2324	0	32520	34834	37352	
2325	0	32516	34836	37376	
2326	0	32520	34828	37356	
2327	0	32514	34832	37376	
2328	0	32512	34840	37380	
2329	0	32528	34828	37370	
2330	0	32520	34820	37352	
2331	0	32520	34828	37364	
2332	0	32520	34832	37360	
2333	0	32530	34844	37348	
2334	0	32542	34840	37332	
2335	0	32532	34860	37344	
2336	0	32520	34880	37352	
2337	0	32524	34880	37368	
2338	0	32536	34884	37360	
2339	0	32544	34892	37364	
2340	0	32552	34924	37376	
2341	0	32560	34908	37356	
2342	0	32572	34916	37332	
2343	0	32556	34928	37344	
2344	0	32560	34932	37340	
2345	0	32566	34928	37352	
2346	0	32580	34928	37376	
2347	0	32554	34936	37360	
2348	0	32544	34956	37352	
2349	0	32544	34980	37380	
2350	0	32540	34992	37332	
2351	0	32536	35004	37328	
2352	0	32540	34992	37312	
2353	0	32552	35000	37316	
2354	0	32552	35012	37296	
2355	0	32560	35016	37308	
2356	0	32556	34994	37340	
2357	0	32552	34978	37340	
2358	0	32552	35000	37348	
2359	0	32536	35040	37312	
2360	0	32544	35020	37284	
2361	0	32536	35008	37280	
2362	0	32544	35000	37312	
2363	0	32538	34994	37308	
2364	0	32544	35000	37332	
2365	0	32532	35024	37328	
2366	0	32544	35012	37304	
2367	0	32554	35036	37296	
2368	0	32536	35040	37324	
2369	0	32524	35032	37304	
2370	0	32536	35034	37292	
2371	0	32536	35040	37312	
2372	0	32532	35048	37296	
2373	0	32544	35072	37288	
2374	0	32548	35056	37296	
2375	0	32536	35090	37276	
2376	0	32540	35096	37280	
2377	0	32532	35104	37268	
2378	0	32540	35104	37264	
2379	0	32540	35098	37240	
2380	0	32548	35080	37252	
2381	0	32536	35076	37272	
2382	0	32536	35064	37312	
2383	0	32552	35044	37276	
2384	0	32532	35064	37244	
2385	0	32536	35052	37248	
2386	0	32552	35024	37264	
2387	0	32544	35010	37248	
2388	0	32556	35004	37196	
2389	0	32540	35000	37248	
2390	0	32536	35016	37240	
2391	0	32540	35032	37236	
2392	0	32560	35024	37224	
2393	0	32556	35044	37184	
2394	0	32560	35056	37222	
2395	0	32564	35057	37232	
2396	0	32568	35080	37240	
2397	0	32572	35084	37260	
2398	0	32568	35112	37216	
2399	0	32588	35104	37224	
2400	0	32556	35132	37218	
2401	0	32552	35144	37200	
2402	0	32544	35148	37208	
2403	0	32560	35130	37212	
2404	0	32548	35112	37208	
2405	0	32568	35100	37208	
2406	0	32568	35104	37224	
2407	0	32568	35116	37232	
2408	0	32548	35136	37200	
2409	0	32540	35136	37184	
2410	0	32520	35148	37192	
2411	0	32520	35144	37192	
2412	0	32536	35132	37176	
2413	0	32536	35136	37196	
2414	0	32552	35124	37204	
2415	0	32548	35144	37240	
2416	0	32540	35172	37216	
2417	0	32538	35192	37212	
2418	0	32548	35196	37200	
2419	0	32548	35180	37208	
2420	0	32556	35180	37180	
2421	0	32544	35172	37184	
2422	0	32544	35176	37180	
2423	0	32552	35192	37200	
2424	0	32544	35192	37180	
2425	0	32520	35192	37188	
2426	0	32532	35214	37180	
2427	0	32532	35232	37184	
2428	0	32536	35240	37200	
2429	0	32536	35248	37180	
2430	0	32538	35222	37180	
2431	0	32544	35212	37184	
2432	0	32540	35200	37156	
2433	0	32540	35186	37164	
2434	0	32536	35176	37172	
2435	0	32540	35182	37176	
2436	0	32544	35172	37156	
2437	0	32544	35182	37144	
2438	0	32532	35176	37156	
2439	0	32544	35196	37184	
2440	0	32520	35208	37184	
2441	0	32530	35196	37164	
2442	0	32544	35184	37160	
2443	0	32532	35216	37162	
2444	0	32512	35222	37176	
2445	0	32528	35224	37172	
2446	0	32520	35224	37172	
2447	0	32536	35208	37172	
2448	0	32528	35216	37168	
2449	0	32538	35224	37168	
2450	0	32544	35200	37184	
2451	0	32528	35220	37168	
2452	0	32528	35220	37156	
2453	0	32536	35226	37160	
2454	0	32536	35232	37148	
2455	0	32540	35216	37152	
2456	0	32536	35204	37124	
2457	0	32544	35176	37128	
2458	0	32556	35188	37140	
2459	0	32572	35192	37128	
2460	0	32548	35196	37108	
2461	0	32544	35208	37136	
2462	0	32540	35240	37126	
2463	0	32544	35244	37120	
2464	0	32524	35256	37112	
2465	0	32544	35248	37096	
2466	0	32528	35264	37160	
2467	0	32532	35252	37120	
2468	0	32536	35250	37148	
2469	0	32520	35260	37140	
2470	0	32512	35264	37132	
2471	0	32524	35280	37124	
2472	0	32532	35281	37100	
2473	0	32532	35272	37116	
2474	0	32540	35276	37127	
2475	0	32552	35252	37140	
2476	0	32536	35260	37136	
2477	0	32540	35266	37140	
2478	0	32528	35272	37136	
2479	0	32528	35280	37148	
2480	0	32530	35260	37160	
2481	0	32520	35272	37128	
2482	0	32506	35264	37136	
2483	0	32502	35272	37152	
2484	0	32512	35296	37156	
2485	0	32504	35332	37132	
2486	0	32508	35336	37124	
2487	0	32504	35344	37124	
2488	0	32488	35328	37120	
2489	0	32496	35322	37100	
2490	0	32498	35304	37120	
2491	0	32516	35308	37132	
2492	0	32506	35308	37112	
2493	0	32496	35296	37124	
2494	0	32472	35288	37124	
2495	0	32472	35248	37077	
2496	0	32476	35216	37068	
2497	0	32492	35204	37080	
2498	0	32488	35172	37068	
2499	0	32492	35196	37092	
2500	0	32476	35232	37120	
2501	0	32480	35248	37130	
2502	0	32480	35256	37145	
2503	0	32484	35268	37128	
2504	0	32488	35292	37108	
2505	0	32480	35340	37127	
2506	0	32456	35340	37127	
2507	0	32464	35340	37104	
2508	0	32476	35332	37132	
2509	0	32472	35312	37148	
2510	0	32468	35320	37132	
2511	0	32480	35288	37120	
2512	0	32488	35288	37124	
2513	0	32484	35288	37116	
2514	0	32484	35292	37100	
2515	0	32484	35288	37124	
2516	0	32480	35328	37096	
2517	0	32472	35316	37088	
2518	0	32464	35296	37136	
2519	0	32464	35258	37124	
2520	0	32456	35264	37120	
2521	0	32456	35288	37108	
2522	0	32456	35288	37116	
2523	0	32468	35280	37116	
2524	0	32468	35312	37116	
2525	0	32472	35316	37124	
2526	0	32474	35328	37120	
2527	0	32460	35316	37108	
2528	0	32472	35316	37140	
2529	0	32476	35300	37116	
2530	0	32432	35284	37080	
2531	0	32424	35306	37120	
2532	0	32420	35308	37092	
2533	0	32410	35340	37084	
2534	0	32404	35318	37088	
2535	0	32416	35320	37084	
2536	0	32416	35332	37092	
2537	0	32424	35332	37088	
2538	0	32436	35356	37104	
2539	0	32432	35368	37108	
2540	0	32440	35352	37127	
2541	0	32456	35354	37120	
2542	0	32464	35344	37124	
2543	0	32452	35324	37120	
2544	0	32464	35296	37132	
2545	0	32460	35272	37148	
2546	0	32448	35280	37104	
2547	0	32444	35292	37110	
2548	0	32432	35316	37124	
2549	0	32424	35308	37076	
2550	0	32440	35284	37098	
2551	0	32440	35284	37104	
2552	0	32436	35248	37092	
2553	0	32436	35244	37052	
2554	0	32426	35204	37076	
2555	0	32412	35240	37104	
2556	0	32416	35268	37120	
2557	0	32428	35256	37104	
2558	0	32420	35276	37112	
2559	0	32436	35316	37100	
2560	0	32424	35324	37076	
2561	0	32412	35300	37102	
2562	0	32416	35276	37104	
2563	0	32424	35252	37112	
2564	0	32412	35268	37084	
2565	0	32410	35280	37088	
2566	0	32424	35320	37108	
2567	0	32444	35348	37104	
2568	0	32448	35348	37112	
2569	0	32424	35322	37132	
2570	0	32420	35294	37148	
2571	0	32432	35280	37144	
2572	0	32432	35280	37120	
2573	0	32432	35268	37144	
2574	0	32424	35296	37104	
2575	0	32436	35288	37106	
2576	0	32408	35288	37112	
2577	0	32424	35284	37088	
2578	0	32420	35296	37100	
2579	0	32424	35284	37104	
2580	0	32428	35304	37112	
2581	0	32432	35288	37084	
2582	0	32436	35260	37096	
2583	0	32424	35256	37096	
2584	0	32412	35256	37084	
2585	0	32410	35240	37080	
2586	0	32420	35240	37084	
2587	0	32420	35244	37072	
2588	0	32424	35258	37076	
2589	0	32420	35249	37056	
2590	0	32432	35258	37060	
2591	0	32420	35264	37076	
2592	0	32424	35256	37084	
2593	0	32432	35282	37096	
2594	0	32436	35290	37104	
2595	0	32430	35332	37100	
2596	0	32456	35340	37080	
2597	0	32448	35360	37096	
2598	0	32444	35368	37096	
2599	0	32428	35360	37096	
2600	0	32424	35372	37088	
2601	0	32448	35388	37092	
2602	0	32452	35376	37072	
2603	0	32452	35392	37076	
2604	0	32460	35405	37080	
2605	0	32458	35396	37068	
2606	0	32460	35376	37060	
2607	0	32456	35368	37048	
2608	0	32468	35334	37040	
2609	0	32464	35308	37048	
2610	0	32480	35334	37048	
2611	0	32480	35384	37050	
2612	0	32472	35432	37060	
2613	0	32484	35440	37044	
2614	0	32472	35440	37040	
2615	0	32480	35420	37024	
2616	0	32496	35384	37032	
2617	0	32504	35388	37028	
2618	0	32504	35396	37040	
2619	0	32500	35402	37036	
2620	0	32496	35424	37000	
2621	0	32506	35428	37002	
2622	0	32480	35444	37000	
2623	0	32492	35436	36988	
2624	0	32484	35436	36988	
2625	0	32480	35438	36964	
2626	0	32484	35428	36980	
2627	0	32484	35396	36984	
2628	0	32498	35360	36960	
2629	0	32508	35372	36968	
2630	0	32532	35388	36988	
2631	0	32536	35328	36996	
2632	0	32524	35308	36980	
2633	0	32508	35388	37020	
2634	0	32512	35464	37036	
2635	0	32504	35472	36996	
2636	0	32516	35448	36996	
2637	0	32540	35392	36988	
2638	0	32548	35388	36960	
2639	0	32560	35456	36996	
2640	0	32548	35484	37010	
2641	0	32536	35452	37012	
2642	0	32544	35448	37012	
2643	0	32529	35498	37048	
2644	0	32512	35540	36988	
2645	0	32532	35480	36996	
2646	0	32528	35488	36984	
2647	0	32512	35520	36984	
2648	0	32490	35544	36984	
2649	0	32512	35514	36985	
2650	0	32500	35540	36960	
2651	0	32496	35508	36944	
2652	0	32520	35520	36916	
2653	0	32512	35552	36944	
2654	0	32520	35552	36952	
2655	0	32528	35540	36954	
2656	0	32532	35532	36952	
2657	0	32533	35560	36936	
2658	0	32532	35552	36924	
2659	0	32540	35556	36900	
2660	0	32552	35564	36904	
2661	0	32572	35556	36936	
2662	0	32568	35570	36904	
2663	0	32576	35580	36912	
2664	0	32576	35584	36912	
2665	0	32572	35576	36880	
2666	0	32576	35572	36880	
2667	0	32568	35564	36876	
2668	0	32576	35564	36860	
2669	0	32596	35532	36844	
2670	0	32568	35536	36848	
2671	0	32568	35520	36876	
2672	0	32592	35532	36844	
2673	0	32580	35550	36848	
2674	0	32586	35544	36840	
2675	0	32580	35578	36856	
2676	0	32568	35608	36880	
2677	0	32576	35640	36884	
2678	0	32592	35648	36860	
2679	0	32572	35680	36840	
2680	0	32576	35656	36848	
2681	0	32572	35656	36840	
2682	0	32564	35664	36836	
2683	0	32572	35660	36832	
2684	0	32572	35648	36848	
2685	0	32556	35640	36824	
2686	0	32570	35624	36790	
2687	0	32576	35652	36800	
2688	0	32600	35636	36792	
2689	0	32600	35668	36788	
2690	0	32612	35672	36776	
2691	0	32606	35668	36776	
2692	0	32600	35664	36816	
2693	0	32600	35682	36816	
2694	0	32600	35688	36800	
2695	0	32584	35716	36780	
2696	0	32592	35712	36776	
2697	0	32608	35728	36768	
2698	0	32596	35736	36768	
2699	0	32600	35748	36772	
2700	0	32608	35749	36748	
2701	0	32608	35740	36776	
2702	0	32588	35760	36744	
2703	0	32576	35760	36724	
2704	0	32592	35764	36724	
2705	0	32584	35780	36708	
2706	0	32576	35792	36702	
2707	0	32568	35760	36708	
2708	0	32564	35742	36712	
2709	0	32578	35752	36732	
2710	0	32584	35730	36696	
2711	0	32572	35688	36684	
2712	0	32568	35688	36704	
2713	0	32564	35732	36724	
2714	0	32568	35748	36718	
2715	0	32584	35760	36708	
2716	0	32580	35752	36696	
2717	0	32562	35736	36696	
2718	0	32560	35744	36640	
2719	0	32568	35744	36656	
2720	0	32584	35764	36664	
2721	0	32612	35808	36648	
2722	0	32592	35824	36660	
2723	0	32592	35824	36652	
2724	0	32588	35832	36648	
2725	0	32584	35804	36660	
2726	0	32572	35808	36684	
2727	0	32584	35800	36664	
2728	0	32608	35810	36636	
2729	0	32596	35788	36608	
2730	0	32592	35800	36616	
2731	0	32576	35796	36640	
2732	0	32576	35812	36640	
2733	0	32572	35832	36616	
2734	0	32568	35824	36604	
2735	0	32576	35812	36624	
2736	0	32568	35816	36616	
2737	0	32580	35802	36600	
2738	0	32592	35840	36596	
2739	0	32572	35856	36588	
2740	0	32568	35864	36578	
2741	0	32576	35836	36564	
2742	0	32576	35856	36576	
2743	0	32560	35882	36600	
2744	0	32552	35884	36594	
2745	0	32548	35896	36596	
2746	0	32552	35880	36576	
2747	0	32562	35832	36584	
2748	0	32584	35828	36552	
2749	0	32568	35852	36564	
2750	0	32570	35864	36540	
2751	0	32564	35892	36552	
2752	0	32572	35912	36552	
2753	0	32556	35926	36540	
2754	0	32552	35944	36528	
2755	0	32552	35956	36544	
2756	0	32540	35976	36532	
2757	0	32554	35984	36512	
2758	0	32552	35984	36534	
2759	0	32528	36004	36524	
2760	0	32520	35994	36480	
2761	0	32524	35988	36476	
2762	0	32532	36004	36464	
2763	0	32520	36016	36460	
2764	0	32524	36024	36448	
2765	0	32528	36024	36460	
2766	0	32520	36044	36464	
2767	0	32528	36068	36456	
2768	0	32548	36088	36428	
2769	0	32570	36090	36408	
2770	0	32564	36096	36380	
2771	0	32540	36108	36376	
2772	0	32536	36132	36396	
2773	0	32536	36116	36408	
2774	0	32564	36100	36416	
2775	0	32568	36112	36392	
2776	0	32544	36140	36372	
2777	0	32540	36148	36372	
2778	0	32552	36120	36368	
2779	0	32564	36120	36400	
2780	0	32576	36096	36432	
2781	0	32584	36084	36420	
2782	0	32584	36096	36394	
2783	0	32576	36112	36356	
2784	0	32568	36140	36312	
2785	0	32552	36124	36304	
2786	0	32552	36140	36360	
2787	0	32544	36152	36312	
2788	0	32552	36152	36296	
2789	0	32520	36180	36304	
2790	0	32544	36180	36320	
2791	0	32548	36193	36312	
2792	0	32540	36184	36320	
2793	0	32564	36204	36316	
2794	0	32568	36208	36300	
2795	0	32572	36196	36278	
2796	0	32576	36156	36296	
2797	0	32580	36146	36296	
2798	0	32592	36144	36284	
2799	0	32596	36148	36260	
2800	0	32584	36164	36244	
2801	0	32592	36148	36236	
2802	0	32600	36208	36216	
2803	0	32610	36184	36204	
2804	0	32608	36188	36192	
2805	0	32596	36204	36200	
2806	0	32608	36192	36200	
2807	0	32612	36212	36212	
2808	0	32604	36232	36214	
2809	0	32584	36234	36176	
2810	0	32588	36228	36196	
2811	0	32576	36232	36184	
2812	0	32588	36240	36200	
2813	0	32584	36260	36168	
2814	0	32584	36264	36152	
2815	0	32585	36288	36130	
2816	0	32600	36296	36144	
2817	0	32600	36280	36120	
2818	0	32600	36300	36120	
2819	0	32612	36308	36144	
2820	0	32608	36320	36156	
2821	0	32612	36304	36128	
2822	0	32602	36322	36128	
2823	0	32600	36308	36132	
2824	0	32604	36300	36128	
2825	0	32608	36320	36136	
2826	0	32604	36320	36144	
2827	0	32608	36348	36128	
2828	0	32608	36376	36092	
2829	0	32612	36376	36068	
2830	0	32596	36366	36048	
2831	0	32588	36368	36072	
2832	0	32608	36344	36088	
2833	0	32592	36344	36080	
2834	0	32576	36340	36104	
2835	0	32584	36344	36080	
2836	0	32600	36340	36088	
2837	0	32596	36356	36068	
2838	0	32616	36358	36076	
2839	0	32608	36368	36060	
2840	0	32636	36372	36052	
2841	0	32620	36378	36040	
2842	0	32616	36372	36060	
2843	0	32628	36384	36040	
2844	0	32632	36400	36060	
2845	0	32628	36428	35992	
2846	0	32632	36424	36016	
2847	0	32652	36400	36012	
2848	0	32648	36412	36040	
2849	0	32640	36400	36076	
2850	0	32652	36412	36040	
2851	0	32660	36400	36016	
2852	0	32668	36384	36008	
2853	0	32652	36408	36024	
2854	0	32656	36416	36016	
2855	0	32658	36420	36018	
2856	0	32652	36436	36004	
2857	0	32644	36416	35992	
2858	0	32644	36376	36012	
2859	0	32640	36348	36012	
2860	0	32636	36364	36024	
2861	0	32672	36376	35992	
2862	0	32680	36400	35976	
2863	0	32680	36432	35964	
2864	0	32652	36476	35964	
2865	0	32628	36484	35976	
2866	0	32620	36464	35978	
2867	0	32624	36456	35960	
2868	0	32624	36444	35968	
2869	0	32640	36444	35968	
2870	0	32640	36460	35952	
2871	0	32664	36460	35960	
2872	0	32664	36460	35968	
2873	0	32656	36456	35944	
2874	0	32664	36468	35912	
2875	0	32640	36472	35900	
2876	0	32652	36452	35920	
2877	0	32664	36442	35936	
2878	0	32660	36492	35936	
2879	0	32664	36508	35888	
2880	0	32664	36528	35884	
2881	0	32648	36528	35880	
2882	0	32660	36540	35872	
2883	0	32656	36516	35880	
2884	0	32672	36496	35894	
2885	0	32676	36504	35888	
2886	0	32672	36488	35896	
2887	0	32668	36496	35862	
2888	0	32664	36508	35872	
2889	0	32664	36540	35864	
2890	0	32684	36552	35892	
2891	0	32704	36552	35848	
2892	0	32718	36520	35892	
2893	0	32712	36508	35876	
2894	0	32684	36504	35892	
2895	0	32692	36496	35856	
2896	0	32684	36496	35828	
2897	0	32688	36488	35844	
2898	0	32680	36504	35884	
2899	0	32684	36492	35880	
2900	0	32692	36496	35856	
2901	0	32684	36504	35864	
2902	0	32696	36500	35852	
2903	0	32704	36504	35828	
2904	0	32700	36524	35836	
2905	0	32704	36544	35832	
2906	0	32696	36568	35800	
2907	0	32704	36536	35810	
2908	0	32676	36552	35792	
2909	0	32668	36532	35812	
2910	0	32676	36508	35836	
2911	0	32672	36528	35824	
2912	0	32680	36512	35804	
2913	0	32664	36512	35820	
2914	0	32656	36516	35788	
2915	0	32648	36510	35804	
2916	0	32640	36508	35812	
2917	0	32662	36536	35820	
2918	0	32648	36564	35792	
2919	0	32656	36604	35772	
2920	0	32656	36596	35744	
2921	0	32664	36620	35744	
2922	0	32660	36608	35772	
2923	0	32664	36592	35768	
2924	0	32656	36608	35744	
2925	0	32664	36616	35720	
2926	0	32656	36618	35692	
2927	0	32672	36640	35716	
2928	0	32668	36640	35708	
2929	0	32656	36648	35712	
2930	0	32648	36656	35728	
2931	0	32648	36648	35732	
2932	0	32652	36648	35724	
2933	0	32640	36620	35700	
2934	0	32660	36616	35712	
2935	0	32664	36608	35696	
2936	0	32672	36614	35684	
2937	0	32672	36624	35692	
2938	0	32672	36656	35724	
2939	0	32672	36644	35732	
2940	0	32688	36648	35716	
2941	0	32668	36666	35724	
2942	0	32680	36656	35712	
2943	0	32684	36656	35696	
2944	0	32680	36636	35698	
2945	0	32688	36628	35668	
2946	0	32700	36612	35664	
2947	0	32688	36592	35660	
2948	0	32672	36580	35648	
2949	0	32664	36584	35624	
2950	0	32664	36600	35658	
2951	0	32656	36608	35656	
2952	0	32684	36596	35664	
2953	0	32664	36624	35644	
2954	0	32672	36640	35640	
2955	0	32668	36628	35648	
2956	0	32664	36644	35692	
2957	0	32672	36620	35668	
2958	0	32672	36628	35652	
2959	0	32672	36640	35684	
2960	0	32674	36648	35684	
2961	0	32672	36668	35668	
2962	0	32664	36680	35644	
2963	0	32676	36664	35644	
2964	0	32676	36680	35648	
2965	0	32664	36688	35656	
2966	0	32658	36688	35644	
2967	0	32664	36684	35636	
2968	0	32670	36684	35616	
2969	0	32684	36682	35608	
2970	0	32672	36664	35594	
2971	0	32680	36648	35584	
2972	0	32676	36636	35552	
2973	0	32664	36644	35616	
2974	0	32668	36648	35588	
2975	0	32657	36644	35560	
2976	0	32652	36680	35548	
2977	0	32682	36674	35568	
2978	0	32688	36656	35544	
2979	0	32676	36684	35528	
2980	0	32660	36676	35546	
2981	0	32656	36724	35556	
2982	0	32652	36736	35540	
2983	0	32660	36740	35512	
2984	0	32660	36732	35488	
2985	0	32648	36734	35494	
2986	0	32656	36752	35520	
2987	0	32652	36760	35536	
2988	0	32656	36748	35524	
2989	0	32680	36736	35528	
2990	0	32696	36713	35500	
2991	0	32682	36728	35492	
2992	0	32680	36728	35520	
2993	0	32684	36724	35488	
2994	0	32692	36728	35500	
2995	0	32696	36720	35482	
2996	0	32704	36700	35512	
2997	0	32704	36668	35492	
2998	0	32704	36641	35472	
2999	0	32704	36648	35464	
3000	0	32696	36668	35476	
3001	0	32684	36656	35464	
3002	0	32688	36684	35472	
3003	0	32704	36672	35488	
3004	0	32696	36672	35468	
3005	0	32708	36676	35488	
3006	0	32688	36692	35460	
3007	0	32680	36680	35504	
3008	0	32680	36672	35492	
3009	0	32680	36680	35465	
3010	0	32712	36712	35464	
3011	0	32696	36732	35456	
3012	0	32712	36740	35456	
3013	0	32720	36760	35456	
3014	0	32724	36780	35432	
3015	0	32720	36768	35420	
3016	0	32724	36752	35452	
3017	0	32716	36756	35469	
3018	0	32680	36776	35480	
3019	0	32672	36800	35424	
3020	0	32674	36800	35424	
3021	0	32692	36812	35408	
3022	0	32712	36824	35428	
3023	0	32724	36792	35384	
3024	0	32708	36812	35376	
3025	0	32704	36824	35352	
3026	0	32706	36832	35360	
3027	0	32712	36828	35370	
3028	0	32712	36820	35376	
3029	0	32720	36788	35360	
3030	0	32728	36764	35392	
3031	0	32748	36760	35368	
3032	0	32748	36752	35388	
3033	0	32756	36756	35348	
3034	0	32760	36756	35348	
3035	0	32744	36776	35340	
3036	0	32740	36792	35352	
3037	0	32724	36824	35360	
3038	0	32732	36824	35344	
3039	0	32708	36852	35332	
3040	0	32720	36871	35352	
3041	0	32728	36876	35342	
3042	0	32720	36880	35316	
3043	0	32744	36880	35288	
3044	0	32752	36871	35302	
3045	0	32740	36872	35304	
3046	0	32728	36871	35280	
3047	0	32728	36884	35304	
3048	0	32740	36888	35298	
3049	0	32756	36868	35292	
3050	0	32744	36870	35316	
3051	0	32740	36876	35316	
3052	0	32752	36888	35280	
3053	0	32760	36896	35285	
3054	0	32744	36912	35272	
3055	0	32752	36896	35280	
3056	0	32756	36880	35264	
3057	0	32760	36896	35268	
3058	0	32768	36880	35256	
3059	0	32764	36882	35280	
3060	0	32752	36860	35276	
3061	0	32736	36860	35256	
3062	0	32744	36840	35288	
3063	0	32748	36840	35260	
3064	0	32752	36832	35260	
3065	0	32748	36832	35232	
3066	0	32748	36830	35232	
3067	0	32756	36818	35212	
3068	0	32748	36836	35216	
3069	0	32752	36840	35240	
3070	0	32741	36825	35252	
3071	0	32736	36832	35224	
3072	0	32732	36820	35260	
3073	0	32732	36820	35250	
3074	0	32752	36848	35216	
3075	0	32744	36880	35196	
3076	0	32716	36884	35204	
3077	0	32740	36852	35184	
3078	0	32728	36856	35184	
3079	0	32748	36856	35212	
3080	0	32764	36884	35172	
3081	0	32760	36904	35178	
3082	0	32770	36918	35188	
3083	0	32768	36892	35184	
3084	0	32744	36888	35220	
3085	0	32748	36900	35200	
3086	0	32748	36936	35184	
3087	0	32728	36972	35145	
3088	0	32732	36936	35094	
3089	0	32708	36916	35140	
3090	0	32709	36916	35152	
3091	0	32716	36924	35136	
3092	0	32728	36920	35132	
3093	0	32748	36944	35128	
3094	0	32724	36940	35140	
3095	0	32752	36932	35136	
3096	0	32769	36920	35148	
3097	0	32776	36916	35108	
3098	0	32756	36912	35104	
3099	0	32752	36916	35108	
3100	0	32744	36920	35092	
3101	0	32728	36940	35088	
3102	0	32728	36928	35096	
3103	0	32720	36940	35120	
3104	0	32716	36960	35104	
3105	0	32704	36976	35060	
3106	0	32708	36976	35084	
3107	0	32700	36952	35070	
3108	0	32728	36912	35104	
3109	0	32696	36928	35084	
3110	0	32716	36914	35076	
3111	0	32696	36928	35052	
3112	0	32696	36936	35024	
3113	0	32672	36976	34980	
3114	0	32668	36980	34996	
3115	0	32664	36984	35000	
3116	0	32668	36956	35008	
3117	0	32668	36936	34992	
3118	0	32692	36952	35026	
3119	0	32696	36948	35042	
3120	0	32704	36930	35048	
3121	0	32696	36924	35016	
3122	0	32692	36952	35020	
3123	0	32680	36972	34994	
3124	0	32680	36980	35018	
3125	0	32674	36972	34988	
3126	0	32696	36972	34980	
3127	0	32712	36976	34992	
3128	0	32698	36944	34976	
3129	0	32704	36936	35000	
3130	0	32692	36972	34978	
3131	0	32696	37008	34972	
3132	0	32696	37028	34976	
3133	0	32704	37036	34976	
3134	0	32672	37026	34944	
3135	0	32688	37004	34932	
3136	0	32680	36988	34944	
3137	0	32666	36964	34972	
3138	0	32656	36952	34968	
3139	0	32644	36964	34956	
3140	0	32640	36984	34940	
3141	0	32640	36992	34944	
3142	0	32644	37020	34970	
3143	0	32648	37016	34944	
3144	0	32664	37004	34922	
3145	0	32632	37018	34940	
3146	0	32640	37020	34928	
3147	0	32656	37032	34916	
3148	0	32664	37048	34928	
3149	0	32672	37088	34916	
3150	0	32672	37108	34912	
3151	0	32672	37100	34896	
3152	0	32688	37088	34924	
3153	0	32664	37072	34908	
3154	0	32676	37048	34896	
3155	0	32658	37072	34880	
3156	0	32660	37080	34864	
3157	0	32652	37084	34864	
3158	0	32656	37068	34856	
3159	0	32658	37072	34848	
3160	0	32652	37088	34840	
3161	0	32656	37080	34860	
3162	0	32652	37076	34856	
3163	0	32652	37080	34824	
3164	0	32656	37056	34872	
3165	0	32656	37060	34828	
3166	0	32652	37064	34808	
3167	0	32652	37084	34816	
3168	0	32668	37080	34816	
3169	0	32680	37072	34856	
3170	0	32680	37072	34860	
3171	0	32676	37056	34836	
3172	0	32664	37076	34836	
3173	0	32674	37044	34812	
3174	0	32660	37068	34840	
3175	0	32656	37068	34816	
3176	0	32664	37040	34808	
3177	0	32668	37034	34810	
3178	0	32664	37044	34792	
3179	0	32648	37048	34756	
3180	0	32656	37056	34764	
3181	0	32664	37068	34766	
3182	0	32664	37044	34752	
3183	0	32656	37044	34836	
3184	0	32673	37044	34788	
3185	0	32672	37028	34792	
3186	0	32682	36992	34788	
3187	0	32656	37008	34776	
3188	0	32644	37032	34752	
3189	0	32652	37064	34752	
3190	0	32642	37110	34744	
3191	0	32640	37108	34752	
3192	0	32648	37093	34752	
3193	0	32644	37084	34756	
3194	0	32648	37108	34744	
3195	0	32656	37116	34690	
3196	0	32656	37108	34660	
3197	0	32644	37092	34688	
3198	0	32640	37104	34672	
3199	0	32632	37108	34672	
3200	0	32644	37104	34660	
3201	0	32632	37100	34640	
3202	0	32618	37100	34628	
3203	0	32604	37120	34636	
3204	0	32608	37136	34596	
3205	0	32600	37168	34616	
3206	0	32600	37146	34600	
3207	0	32624	37154	34612	
3208	0	32620	37146	34600	
3209	0	32636	37156	34600	
3210	0	32640	37146	34596	
3211	0	32648	37148	34584	
3212	0	32656	37160	34600	
3213	0	32664	37160	34592	
3214	0	32648	37160	34577	
3215	0	32648	37152	34580	
3216	0	32640	37152	34584	
3217	0	32612	37160	34600	
3218	0	32616	37156	34600	
3219	0	32616	37164	34596	
3220	0	32628	37148	34616	
3221	0	32620	37170	34580	
3222	0	32616	37176	34552	
3223	0	32608	37216	34540	
3224	0	32604	37252	34532	
3225	0	32616	37232	34528	
3226	0	32624	37236	34516	
3227	0	32620	37232	34544	
3228	0	32640	37220	34544	
3229	0	32636	37196	34530	
3230	0	32648	37188	34532	
3231	0	32640	37200	34528	
3232	0	32652	37180	34536	
3233	0	32636	37160	34528	
3234	0	32632	37156	34548	
3235	0	32608	37152	34554	
3236	0	32632	37104	34540	
3237	0	32632	37104	34556	
3238	0	32632	37116	34536	
3239	0	32616	37136	34524	
3240	0	32632	37136	34548	
3241	0	32628	37128	34552	
3242	0	32632	37128	34528	
3243	0	32628	37136	34520	
3244	0	32640	37128	34540	
3245	0	32648	37136	34536	
3246	0	32652	37128	34580	
3247	0	32640	37128	34576	
3248	0	32636	37132	34592	
3249	0	32652	37128	34560	
3250	0	32650	37108	34540	
3251	0	32656	37128	34526	
3252	0	32648	37144	34480	
3253	0	32652	37190	34480	
3254	0	32640	37176	34472	
3255	0	32632	37168	34488	
3256	0	32632	37172	34488	
3257	0	32648	37156	34472	
3258	0	32640	37144	34444	
3259	0	32660	37156	34464	
3260	0	32652	37160	34468	
3261	0	32656	37164	34444	
3262	0	32652	37164	34476	
3263	0	32648	37170	34476	
3264	0	32648	37204	34456	
3265	0	32664	37196	34452	
3266	0	32644	37196	34464	
3267	0	32628	37200	34466	
3268	0	32624	37200	34448	
3269	0	32632	37212	34428	
3270	0	32636	37216	34468	
3271	0	32640	37202	34456	
3272	0	32644	37208	34416	
3273	0	32628	37208	34440	
3274	0	32660	37180	34440	
3275	0	32660	37200	34402	
3276	0	32672	37176	34424	
3277	0	32656	37188	34380	
3278	0	32664	37184	34384	
3279	0	32636	37188	34400	
3280	0	32628	37216	34384	
3281	0	32624	37192	34392	
3282	0	32644	37184	34402	
3283	0	32636	37176	34424	
3284	0	32628	37204	34400	
3285	0	32640	37180	34416	
3286	0	32652	37184	34396	
3287	0	32656	37176	34404	
3288	0	32648	37176	34380	
3289	0	32644	37182	34408	
3290	0	32648	37176	34416	
3291	0	32648	37176	34408	
3292	0	32664	37168	34396	
3293	0	32642	37176	34396	
3294	0	32648	37190	34376	
3295	0	32648	37200	34376	
3296	0	32660	37196	34388	
3297	0	32660	37216	34396	
3298	0	32674	37204	34380	
3299	0	32674	37212	34368	
3300	0	32666	37200	34360	
3301	0	32680	37180	34380	
3302	0	32672	37164	34352	
3303	0	32668	37188	34360	
3304	0	32652	37184	34376	
3305	0	32644	37172	34372	
3306	0	32656	37160	34368	
3307	0	32634	37164	34356	
3308	0	32628	37160	34360	
3309	0	32632	37180	34312	
3310	0	32632	37200	34324	
3311	0	32648	37200	34300	
3312	0	32644	37192	34304	
3313	0	32618	37196	34304	
3314	0	32640	37204	34308	
3315	0	32640	37220	34276	
3316	0	32640	37236	34276	
3317	0	32634	37252	34280	
3318	0	32648	37248	34244	
3319	0	32660	37256	34248	
3320	0	32656	37260	34236	
3321	0	32660	37248	34216	
3322	0	32672	37240	34228	
3323	0	32664	37248	34208	
3324	0	32664	37232	34204	
3325	0	32656	37244	34192	
3326	0	32672	37228	34208	
3327	0	32672	37236	34192	
3328	0	32664	37224	34198	
3329	0	32660	37220	34200	
3330	0	32660	37200	34188	
3331	0	32648	37200	34200	
3332	0	32648	37196	34160	
3333	0	32636	37200	34200	
3334	0	32644	37208	34184	
3335	0	32640	37224	34169	
3336	0	32644	37248	34152	
3337	0	32656	37264	34164	
3338	0	32660	37270	34164	
3339	0	32664	37268	34156	
3340	0	32664	37280	34128	
3341	0	32656	37292	34114	
3342	0	32640	37312	34120	
3343	0	32640	37292	34092	
3344	0	32650	37284	34124	
3345	0	32628	37256	34084	
3346	0	32628	37252	34092	
3347	0	32648	37228	34120	
3348	0	32624	37212	34120	
3349	0	32624	37240	34112	
3350	0	32632	37244	34104	
3351	0	32636	37252	34072	
3352	0	32632	37244	34080	
3353	0	32640	37244	34060	
3354	0	32640	37212	34066	
3355	0	32636	37196	34088	
3356	0	32640	37200	34084	
3357	0	32628	37232	34096	
3358	0	32632	37248	34052	
3359	0	32652	37264	34032	
3360	0	32650	37272	34044	
3361	0	32660	37296	34028	
3362	0	32648	37326	33992	
3363	0	32664	37332	34012	
3364	0	32648	37324	33984	
3365	0	32672	37280	34000	
3366	0	32656	37260	34016	
3367	0	32660	37252	34044	
3368	0	32644	37232	34036	
3369	0	32632	37248	34020	
3370	0	32632	37280	33960	
3371	0	32648	37292	33980	
3372	0	32628	37280	33956	
3373	0	32648	37272	33952	
3374	0	32656	37269	33948	
3375	0	32656	37272	33940	
3376	0	32656	37300	33948	
3377	0	32636	37312	33928	
3378	0	32626	37328	33928	
3379	0	32624	37320	33956	
3380	0	32636	37300	33944	
3381	0	32636	37284	33926	
3382	0	32640	37304	33908	
3383	0	32644	37312	33944	
3384	0	32648	37324	33912	
3385	0	32656	37324	33908	
3386	0	32664	37312	33872	
3387	0	32648	37320	33880	
3388	0	32640	37344	33844	
3389	0	32652	37336	33840	
3390	0	32656	37336	33844	
3391	0	32652	37340	33836	
3392	0	32648	37344	33848	
3393	0	32644	37340	33844	
3394	0	32640	37332	33852	
3395	0	32644	37336	33856	
3396	0	32648	37304	33824	
3397	0	32644	37300	33864	
3398	0	32636	37332	33880	
3399	0	32628	37328	33852	
3400	0	32626	37330	33856	
3401	0	32636	37336	33852	
3402	0	32624	37356	33824	
3403	0	32616	37360	33798	
3404	0	32624	37352	33816	
3405	0	32616	37360	33800	
3406	0	32608	37370	33792	
3407	0	32624	37360	33812	
3408	0	32624	37326	33796	
3409	0	32632	37336	33781	
3410	0	32624	37332	33764	
3411	0	32628	37316	33804	
3412	0	32632	37300	33794	
3413	0	32632	37288	33808	
3414	0	32632	37276	33780	
3415	0	32640	37268	33776	
3416	0	32624	37256	33780	
3417	0	32624	37248	33792	
3418	0	32632	37260	33768	
3419	0	32592	37300	33732	
3420	0	32596	37304	33744	
3421	0	32596	37292	33736	
3422	0	32602	37296	33744	
3423	0	32596	37288	33752	
3424	0	32616	37268	33732	
3425	0	32612	37272	33772	
3426	0	32608	37280	33760	
3427	0	32624	37304	33728	
3428	0	32640	37312	33760	
3429	0	32640	37288	33740	
3430	0	32644	37298	33754	
3431	0	32652	37296	33736	
3432	0	32652	37308	33720	
3433	0	32652	37328	33756	
3434	0	32644	37352	33736	
3435	0	32660	37352	33692	
3436	0	32672	37368	33692	
3437	0	32664	37352	33704	
3438	0	32656	37354	33706	
3439	0	32656	37352	33712	
3440	0	32664	37340	33730	
3441	0	32652	37344	33700	
3442	0	32664	37328	33688	
3443	0	32640	37328	33672	
3444	0	32640	37320	33664	
3445	0	32632	37340	33642	
3446	0	32628	37336	33636	
3447	0	32620	37372	33612	
3448	0	32624	37376	33588	
3449	0	32616	37384	33574	
3450	0	32636	37368	33568	
3451	0	32624	37368	33572	
3452	0	32616	37376	33569	
3453	0	32632	37382	33568	
3454	0	32624	37364	33576	
3455	0	32636	37360	33556	
3456	0	32640	37376	33536	
3457	0	32632	37383	33536	
3458	0	32624	37392	33552	
3459	0	32616	37380	33564	
3460	0	32616	37380	33568	
3461	0	32632	37368	33584	
3462	0	32612	37360	33542	
3463	0	32614	37353	33520	
3464	0	32624	37360	33536	
3465	0	32624	37374	33548	
3466	0	32620	37360	33568	
3467	0	32624	37364	33556	
3468	0	32612	37336	33528	
3469	0	32612	37314	33532	
3470	0	32612	37324	33528	
3471	0	32602	37316	33516	
3472	0	32616	37328	33516	
3473	0	32616	37352	33524	
3474	0	32608	37320	33528	
3475	0	32612	37312	33516	
3476	0	32592	37324	33524	
3477	0	32612	37320	33484	
3478	0	32596	37304	33504	
3479	0	32592	37320	33524	
3480	0	32616	37304	33504	
3481	0	32616	37320	33496	
3482	0	32602	37324	33480	
3483	0	32586	37300	33504	
3484	0	32608	37304	33500	
3485	0	32608	37280	33498	
3486	0	32612	37292	33492	
3487	0	32616	37288	33500	
3488	0	32616	37304	33512	
3489	0	32616	37316	33480	
3490	0	32640	37356	33484	
3491	0	32634	37376	33488	
3492	0	32652	37384	33460	
3493	0	32632	37408	33472	
3494	0	32648	37406	33444	
3495	0	32648	37392	33422	
3496	0	32652	37384	33400	
3497	0	32640	37400	33400	
3498	0	32620	37412	33378	
3499	0	32616	37400	33368	
3500	0	32604	37404	33360	
3501	0	32618	37382	33348	
3502	0	32628	37392	33356	
3503	0	32628	37376	33360	
3504	0	32636	37372	33380	
3505	0	32632	37382	33392	
3506	0	32616	37380	33404	
3507	0	32612	37368	33392	
3508	0	32628	37360	33376	
3509	0	32616	37360	33364	
3510	0	32624	37368	33372	
3511	0	32632	37376	33353	
3512	0	32628	37392	33340	
3513	0	32620	37368	33356	
3514	0	32632	37356	33348	
3515	0	32600	37392	33336	
3516	0	32592	37376	33352	
3517	0	32616	37346	33384	
3518	0	32616	37360	33368	
3519	0	32616	37336	33376	
3520	0	32608	37336	33368	
3521	0	32612	37330	33352	
3522	0	32584	37340	33356	
3523	0	32602	37328	33352	
3524	0	32592	37344	33360	
3525	0	32612	37352	33368	
3526	0	32624	37368	33354	
3527	0	32620	37364	33348	
3528	0	32616	37356	33328	
3529	0	32608	37354	33328	
3530	0	32604	37340	33348	
3531	0	32600	37368	33328	
3532	0	32624	37360	33320	
3533	0	32624	37382	33292	
3534	0	32612	37383	33304	
3535	0	32636	37368	33292	
3536	0	32632	37380	33296	
3537	0	32628	37404	33284	
3538	0	32628	37404	33298	
3539	0	32636	37408	33312	
3540	0	32628	37400	33285	
3541	0	32640	37383	33272	
3542	0	32644	37376	33287	
3543	0	32640	37364	33288	
3544	0	32616	37380	33260	
3545	0	32618	37376	33242	
3546	0	32641	37352	33281	
3547	0	32640	37356	33268	
3548	0	32648	37364	33244	
3549	0	32648	37360	33264	
3550	0	32640	37384	33240	
3551	0	32636	37396	33256	
3552	0	32632	37364	33264	
3553	0	32628	37360	33242	
3554	0	32636	37370	33240	
3555	0	32634	37376	33244	
3556	0	32620	37380	33232	
3557	0	32620	37396	33212	
3558	0	32616	37376	33200	
3559	0	32616	37402	33212	
3560	0	32592	37416	33176	
3561	0	32584	37396	33188	
3562	0	32600	37417	33184	
3563	0	32604	37382	33152	
3564	0	32600	37380	33164	
3565	0	32586	37368	33176	
3566	0	32596	37354	33196	
3567	0	32592	37348	33192	
3568	0	32600	37332	33192	
3569	0	32586	37324	33218	
3570	0	32584	37344	33192	
3571	0	32604	37328	33220	
3572	0	32596	37344	33204	
3573	0	32584	37356	33176	
3574	0	32588	37372	33180	
3575	0	32602	37370	33152	
3576	0	32608	37366	33178	
3577	0	32600	37368	33208	
3578	0	32616	37344	33208	
3579	0	32608	37348	33164	
3580	0	32600	37356	33184	
3581	0	32596	37352	33176	
3582	0	32608	37352	33152	
3583	0	32616	37368	33140	
3584	0	32600	37360	33148	
3585	0	32616	37356	33140	
3586	0	32628	37372	33160	
3587	0	32616	37376	33144	
3588	0	32612	37376	33120	
3589	0	32616	37380	33122	
3590	0	32608	37372	33108	
3591	0	32616	37380	33080	
3592	0	32608	37416	33064	
3593	0	32616	37410	33080	
3594	0	32584	37412	33092	
3595	0	32584	37424	33060	
3596	0	32592	37424	33048	
3597	0	32600	37408	33060	
3598	0	32600	37400	33048	
3599	0	32596	37388	33036	
3600	0	32604	37376	33036	
3601	0	32602	37368	33032	
3602	0	32600	37352	33044	
3603	0	32608	37356	33052	
3604	0	32612	37352	33074	
3605	0	32612	37360	33080	
3606	0	32600	37352	33080	
3607	0	32616	37324	33084	
3608	0	32604	37336	33092	
3609	0	32624	37336	33076	
3610	0	32616	37356	33080	
3611	0	32608	37358	33044	
3612	0	32614	37340	33040	
3613	0	32596	37360	33009	
3614	0	32600	37368	33008	
3615	0	32616	37368	33000	
3616	0	32608	37368	33028	
3617	0	32624	37352	33004	
3618	0	32596	37364	33032	
3619	0	32612	37352	33020	
3620	0	32616	37364	33000	
3621	0	32616	37360	32996	
3622	0	32600	37380	33008	
3623	0	32586	37396	33000	
3624	0	32580	37388	32996	
3625	0	32592	37368	33008	
3626	0	32604	37380	32996	
3627	0	32592	37380	32984	
3628	0	32604	37356	32964	
3629	0	32596	37360	32984	
3630	0	32592	37352	32996	
3631	0	32580	37372	32984	
3632	0	32586	37348	32988	
3633	0	32592	37360	32948	
3634	0	32600	37328	32976	
3635	0	32580	37328	32972	
3636	0	32600	37320	32972	
3637	0	32616	37320	32996	
3638	0	32600	37332	32956	
3639	0	32592	37344	32928	
3640	0	32596	37340	32920	
3641	0	32602	37344	32904	
3642	0	32600	37352	32913	
3643	0	32592	37344	32916	
3644	0	32596	37312	32916	
3645	0	32596	37308	32928	
3646	0	32580	37320	32932	
3647	0	32584	37324	32920	
3648	0	32584	37344	32940	
3649	0	32604	37329	32948	
3650	0	32592	37312	32942	
3651	0	32588	37312	32960	
3652	0	32602	37316	32940	
3653	0	32588	37336	32928	
3654	0	32586	37361	32868	
3655	0	32588	37380	32848	
3656	0	32588	37398	32840	
3657	0	32580	37388	32842	
3658	0	32600	37376	32872	
3659	0	32588	37368	32868	
3660	0	32592	37376	32864	
3661	0	32600	37388	32852	
3662	0	32576	37388	32844	
3663	0	32576	37364	32848	
3664	0	32584	37352	32876	
3665	0	32576	37348	32848	
3666	0	32592	37376	32836	
3667	0	32612	37396	32852	
3668	0	32596	37392	32864	
3669	0	32586	37400	32872	
3670	0	32588	37388	32842	
3671	0	32596	37396	32824	
3672	0	32580	37380	32820	
3673	0	32568	37404	32820	
3674	0	32568	37408	32800	
3675	0	32580	37408	32800	
3676	0	32600	37398	32792	
3677	0	32584	37400	32828	
3678	0	32610	37372	32832	
3679	0	32584	37372	32828	
3680	0	32576	37380	32816	
3681	0	32556	37392	32810	
3682	0	32552	37384	32784	
3683	0	32548	37372	32812	
3684	0	32546	37356	32792	
3685	0	32552	37364	32824	
3686	0	32568	37356	32775	
3687	0	32552	37392	32764	
3688	0	32552	37388	32772	
3689	0	32560	37400	32752	
3690	0	32544	37408	32740	
3691	0	32544	37420	32740	
3692	0	32536	37416	32708	
3693	0	32556	37420	32740	
3694	0	32544	37408	32756	
3695	0	32552	37384	32744	
3696	0	32556	37376	32740	
3697	0	32568	37368	32732	
3698	0	32554	37372	32748	
3699	0	32576	37360	32730	
3700	0	32580	37356	32704	
3701	0	32564	37372	32728	
3702	0	32564	37372	32752	
3703	0	32564	37372	32736	
3704	0	32560	37364	32720	
3705	0	32556	37368	32740	
3706	0	32548	37352	32748	
3707	0	32564	37328	32732	
3708	0	32544	37340	32748	
3709	0	32568	37336	32732	
3710	0	32608	37336	32728	
3711	0	32612	37332	32728	
3712	0	32616	37328	32752	
3713	0	32616	37344	32768	
3714	0	32592	37336	32772	
3715	0	32588	37340	32800	
3716	0	32568	37328	32768	
3717	0	32532	37404	32664	
3718	0	32546	37360	32680	
3719	0	32544	37314	32704	
3720	0	32560	37312	32696	
3721	0	32572	37344	32696	
3722	0	32544	37369	32708	
3723	0	32538	37400	32660	
3724	0	32528	37348	32656	
3725	0	32520	37292	32672	
3726	0	32520	37320	32656	
3727	0	32520	37352	32664	
3728	0	32520	37332	32644	
3729	0	32532	37328	32680	
3730	0	32520	37336	32656	
3731	0	32524	37360	32632	
3732	0	32544	37344	32628	
3733	0	32552	37340	32616	
3734	0	32538	37348	32624	
3735	0	32524	37360	32618	
3736	0	32524	37380	32568	
3737	0	32508	37392	32552	
3738	0	32506	37388	32564	
3739	0	32528	37360	32624	
3740	0	32520	37336	32612	
3741	0	32524	37344	32600	
3742	0	32536	37336	32608	
3743	0	32528	37332	32616	
3744	0	32520	37332	32596	
3745	0	32512	37344	32580	
3746	0	32520	37328	32576	
3747	0	32516	37328	32552	
3748	0	32516	37316	32600	
3749	0	32524	37332	32584	
3750	0	32520	37344	32588	
3751	0	32524	37344	32596	
3752	0	32528	37328	32608	
3753	0	32520	37344	32572	
3754	0	32520	37352	32562	
3755	0	32504	37376	32524	
3756	0	32516	37380	32536	
3757	0	32512	37376	32552	
3758	0	32500	37396	32528	
3759	0	32512	37378	32520	
3760	0	32508	37404	32528	
3761	0	32524	37368	32532	
3762	0	32508	37356	32520	
3763	0	32482	37364	32536	
3764	0	32500	37356	32556	
3765	0	32524	37344	32608	
3766	0	32520	37328	32576	
3767	0	32528	37320	32592	
3768	0	32516	37332	32548	
3769	0	32520	37300	32552	
3770	0	32522	37308	32568	
3771	0	32504	37296	32560	
3772	0	32492	37312	32548	
3773	0	32504	37300	32576	
3774	0	32520	37276	32560	
3775	0	32520	37256	32540	
3776	0	32500	37280	32564	
3777	0	32496	37292	32556	
3778	0	32506	37304	32560	
3779	0	32496	37316	32536	
3780	0	32496	37320	32532	
3781	0	32488	37324	32500	
3782	0	32496	37348	32490	
3783	0	32496	37340	32468	
3784	0	32488	37348	32512	
3785	0	32488	37320	32504	
3786	0	32496	37308	32504	
3787	0	32504	37308	32504	
3788	0	32492	37312	32480	
3789	0	32484	37320	32448	
3790	0	32466	37328	32440	
3791	0	32472	37352	32456	
3792	0	32480	37352	32460	
3793	0	32474	37360	32456	
3794	0	32476	37344	32464	
3795	0	32476	37350	32436	
3796	0	32504	37336	32460	
3797	0	32508	37316	32448	
3798	0	32504	37332	32450	
3799	0	32492	37320	32456	
3800	0	32480	37306	32440	
3801	0	32480	37354	32424	
3802	0	32468	37360	32368	
3803	0	32452	37344	32386	
3804	0	32464	37328	32412	
3805	0	32472	37285	32428	
3806	0	32504	37272	32464	
3807	0	32480	37272	32480	
3808	0	32480	37292	32462	
3809	0	32476	37284	32468	
3810	0	32492	37268	32456	
3811	0	32500	37228	32482	
3812	0	32496	37224	32464	
3813	0	32472	37248	32444	
3814	0	32480	37284	32424	
3815	0	32496	37272	32448	
3816	0	32516	37248	32468	
3817	0	32520	37252	32464	
3818	0	32516	37248	32420	
3819	0	32520	37264	32428	
3820	0	32512	37296	32416	
3821	0	32504	37312	32440	
3822	0	32496	37300	32432	
3823	0	32476	37316	32388	
3824	0	32480	37324	32356	
3825	0	32492	37340	32352	
3826	0	32484	37348	32372	
3827	0	32476	37356	32376	
3828	0	32490	37344	32352	
3829	0	32460	37314	32346	
3830	0	32464	37316	32329	
3831	0	32468	37316	32320	
3832	0	32444	37320	32328	
3833	0	32444	37320	32340	
3834	0	32436	37312	32336	
3835	0	32434	37320	32344	
3836	0	32440	37324	32340	
3837	0	32448	37336	32314	
3838	0	32436	37368	32308	
3839	0	32416	37368	32312	
3840	0	32424	37392	32263	
3841	0	32410	37424	32240	
3842	0	32432	37392	32268	
3843	0	32440	37360	32280	
3844	0	32448	37364	32280	
3845	0	32460	37348	32312	
3846	0	32480	37338	32296	
3847	0	32468	37352	32266	
3848	0	32460	37344	32280	
3849	0	32460	37340	32244	
3850	0	32456	37336	32268	
3851	0	32462	37320	32261	
3852	0	32448	37332	32296	
3853	0	32444	37342	32272	
3854	0	32436	37336	32260	
3855	0	32452	37316	32268	
3856	0	32460	37296	32240	
3857	0	32472	37288	32281	
3858	0	32496	37258	32288	
3859	0	32460	37248	32260	
3860	0	32480	37256	32272	
3861	0	32466	37248	32276	
3862	0	32488	37284	32282	
3863	0	32488	37258	32263	
3864	0	32480	37260	32272	
3865	0	32452	37276	32260	
3866	0	32448	37274	32268	
3867	0	32440	37260	32296	
3868	0	32472	37224	32300	
3869	0	32468	37204	32328	
3870	0	32456	37200	32340	
3871	0	32456	37220	32292	
3872	0	32424	37240	32276	
3873	0	32420	37272	32248	
3874	0	32412	37280	32226	
3875	0	32432	37296	32192	
3876	0	32444	37312	32216	
3877	0	32424	37314	32188	
3878	0	32444	37288	32176	
3879	0	32412	37296	32184	
3880	0	32440	37296	32168	
3881	0	32436	37300	32144	
3882	0	32432	37312	32132	
3883	0	32420	37328	32104	
3884	0	32404	37368	32080	
3885	0	32410	37348	32084	
3886	0	32432	37324	32080	
3887	0	32448	37308	32122	
3888	0	32456	37256	32124	
3889	0	32452	37252	32160	
3890	0	32464	37252	32128	
3891	0	32450	37276	32164	
3892	0	32444	37268	32140	
3893	0	32424	37278	32152	
3894	0	32436	37272	32124	
3895	0	32432	37272	32120	
3896	0	32416	37264	32112	
3897	0	32440	37244	32138	
3898	0	32408	37232	32160	
3899	0	32416	37232	32170	
3900	0	32416	37220	32160	
3901	0	32424	37196	32148	
3902	0	32432	37168	32148	
3903	0	32416	37204	32160	
3904	0	32408	37248	32112	
3905	0	32400	37260	32070	
3906	0	32396	37272	32064	
3907	0	32410	37260	32076	
3908	0	32386	37264	32052	
3909	0	32384	37264	32056	
3910	0	32392	37260	32032	
3911	0	32408	37244	32060	
3912	0	32400	37248	32052	
3913	0	32404	37252	32048	
3914	0	32404	37253	32040	
3915	0	32384	37264	32048	
3916	0	32408	37244	32032	
3917	0	32380	37244	32004	
3918	0	32408	37228	32032	
3919	0	32424	37240	31970	
3920	0	32440	37244	31977	
3921	0	32432	37242	32010	
3922	0	32432	37252	32008	
3923	0	32442	37256	31998	
3924	0	32444	37264	32004	
3925	0	32456	37240	32012	
3926	0	32436	37236	32034	
3927	0	32464	37204	32064	
3928	0	32474	37200	32068	
3929	0	32464	37204	32064	
3930	0	32466	37200	32060	
3931	0	32448	37180	32048	
3932	0	32432	37200	32032	
3933	0	32412	37256	32004	
3934	0	32444	37248	31964	
3935	0	32444	37256	31932	
3936	0	32428	37268	31928	
3937	0	32424	37252	31924	
3938	0	32400	37252	31896	
3939	0	32400	37288	31856	
3940	0	32396	37272	31882	
3941	0	32400	37276	31868	
3942	0	32394	37248	31864	
3943	0	32392	37244	31880	
3944	0	32400	37262	31860	
3945	0	32418	37224	31876	
3946	0	32428	37248	31864	
3947	0	32424	37256	31874	
3948	0	32416	37272	31876	
3949	0	32420	37272	31856	
3950	0	32420	37256	31864	
3951	0	32436	37212	31868	
3952	0	32420	37212	31884	
3953	0	32428	37200	31892	
3954	0	32456	37188	31848	
3955	0	32448	37184	31852	
3956	0	32436	37160	31873	
3957	0	32424	37184	31864	
3958	0	32377	37232	31832	
3959	0	32396	37236	31816	
3960	0	32400	37216	31836	
3961	0	32416	37188	31820	
3962	0	32400	37192	31840	
3963	0	32412	37204	31856	
3964	0	32424	37208	31832	
3965	0	32428	37212	31848	
3966	0	32400	37212	31852	
3967	0	32400	37240	31820	
3968	0	32392	37216	31840	
3969	0	32380	37208	31820	
3970	0	32400	37184	31824	
3971	0	32412	37152	31812	
3972	0	32408	37172	31792	
3973	0	32416	37180	31784	
3974	0	32416	37176	31784	
3975	0	32416	37176	31776	
3976	0	32424	37170	31768	
3977	0	32424	37172	31764	
3978	0	32408	37178	31744	
3979	0	32400	37168	31724	
3980	0	32412	37152	31706	
3981	0	32428	37140	31724	
3982	0	32424	37108	31692	
3983	0	32408	37140	31716	
3984	0	32388	37132	31724	
3985	0	32388	37136	31688	
3986	0	32408	37124	31716	
3987	0	32416	37120	31700	
3988	0	32420	37112	31728	
3989	0	32416	37121	31700	
3990	0	32420	37136	31708	
3991	0	32416	37164	31692	
3992	0	32412	37148	31664	
3993	0	32424	37152	31664	
3994	0	32416	37176	31626	
3995	0	32424	37192	31620	
3996	0	32408	37192	31616	
3997	0	32398	37176	31612	
3998	0	32400	37148	31600	
3999	0	32400	37148	31592	
4000	0	32368	37160	31588	
4001	0	32376	37152	31560	
4002	0	32360	37136	31552	
4003	0	32368	37136	31544	
4004	0	32384	37152	31536	
4005	0	32384	37128	31552	
4006	0	32388	37136	31524	
4007	0	32380	37128	31544	
4008	0	32366	37128	31524	
4009	0	32392	37124	31528	
4010	0	32392	37120	31476	
4011	0	32384	37120	31500	
4012	0	32388	37160	31480	
4013	0	32380	37148	31464	
4014	0	32380	37140	31482	
4015	0	32384	37130	31472	
4016	0	32392	37096	31512	
4017	0	32401	37050	31556	
4018	0	32404	37050	31552	
4019	0	32404	37060	31552	
4020	0	32392	37076	31520	
4021	0	32392	37080	31492	
4022	0	32374	37088	31472	
4023	0	32364	37072	31476	
4024	0	32348	37084	31452	
4025	0	32344	37112	31472	
4026	0	32352	37120	31444	
4027	0	32344	37112	31432	
4028	0	32356	37080	31464	
4029	0	32352	37088	31432	
4030	0	32356	37100	31432	
4031	0	32352	37114	31424	
4032	0	32364	37104	31404	
4033	0	32344	37125	31400	
4034	0	32340	37120	31404	
4035	0	32336	37096	31400	
4036	0	32320	37076	31396	
4037	0	32328	37064	31358	
4038	0	32336	37060	31352	
4039	0	32320	37084	31342	
4040	0	32320	37088	31348	
4041	0	32300	37088	31344	
4042	0	32312	37056	31388	
4043	0	32312	37056	31360	
4044	0	32300	37044	31372	
4045	0	32296	37048	31372	
4046	0	32300	37068	31352	
4047	0	32320	37072	31348	
4048	0	32328	37060	31362	
4049	0	32324	37056	31364	
4050	0	32308	37068	31336	
4051	0	32328	37058	31348	
4052	0	32332	37032	31352	
4053	0	32328	37048	31334	
4054	0	32336	37052	31312	
4055	0	32326	37037	31336	
4056	0	32336	37024	31340	
4057	0	32328	37032	31348	
4058	0	32336	37032	31328	
4059	0	32312	37056	31324	
4060	0	32328	37050	31320	
4061	0	32328	37032	31312	
4062	0	32320	37052	31344	
4063	0	32316	37052	31336	
4064	0	32340	37032	31320	
4065	0	32336	37064	31292	
4066	0	32328	37040	31304	
4067	0	32336	37012	31298	
4068	0	32340	37004	31304	
4069	0	32352	36988	31292	
4070	0	32340	36992	31296	
4071	0	32328	37012	31280	
4072	0	32336	37000	31285	
4073	0	32304	37016	31276	
4074	0	32320	37008	31288	
4075	0	32296	37040	31288	
4076	0	32296	37068	31280	
4077	0	32296	37088	31272	
4078	0	32296	37056	31272	
4079	0	32312	37024	31292	
4080	0	32316	37012	31296	
4081	0	32296	37012	31276	
4082	0	32296	37002	31292	
4083	0	32300	37000	31304	
4084	0	32290	37008	31296	
4085	0	32288	37016	31298	
4086	0	32304	37008	31308	
4087	0	32304	37024	31300	
4088	0	32288	37024	31280	
4089	0	32308	37024	31284	
4090	0	32316	36996	31280	
4091	0	32312	36988	31296	
4092	0	32304	37006	31312	
4093	0	32309	36980	31308	
4094	0	32296	36996	31300	
4095	0	32308	37008	31288	
4096	0	32304	37018	31268	
4097	0	32316	37004	31264	
4098	0	32328	36984	31260	
4099	0	32320	36986	31288	
4100	0	32332	36978	31300	
4101	0	32324	36986	31252	
4102	0	32324	37008	31274	
4103	0	32336	36988	31284	
4104	0	32336	36968	31300	
4105	0	32320	36968	31316	
4106	0	32292	36978	31284	
4107	0	32320	36952	31292	
4108	0	32300	36928	31296	
4109	0	32304	36968	31278	
4110	0	32320	36956	31244	
4111	0	32316	36936	31264	
4112	0	32312	36928	31292	
4113	0	32288	36964	31292	
4114	0	32288	36968	31266	
4115	0	32304	36968	31252	
4116	0	32316	36964	31238	
4117	0	32324	36968	31232	
4118	0	32328	36964	31238	
4119	0	32344	36972	31240	
4120	0	32340	36960	31256	
4121	0	32348	36956	31256	
4122	0	32312	36978	31256	
4123	0	32304	36996	31232	
4124	0	32316	36992	31188	
4125	0	32312	36984	31192	
4126	0	32320	36976	31208	
4127	0	32316	36984	31180	
4128	0	32308	36984	31196	
4129	0	32300	36998	31232	
4130	0	32280	36992	31196	
4131	0	32296	37012	31208	
4132	0	32292	37016	31192	
4133	0	32276	37016	31164	
4134	0	32292	37028	31152	
4135	0	32304	37048	31144	
4136	0	32308	37056	31140	
4137	0	32292	37040	31146	
4138	0	32288	37056	31152	
4139	0	32296	37056	31172	
4140	0	32308	37008	31180	
4141	0	32312	36988	31224	
4142	0	32304	36960	31240	
4143	0	32300	36984	31232	
4144	0	32300	37008	31216	
4145	0	32308	36976	31220	
4146	0	32316	36944	31224	
4147	0	32282	36988	31189	
4148	0	32280	36984	31168	
4149	0	32306	36952	31164	
4150	0	32304	36964	31188	
4151	0	32312	36968	31192	
4152	0	32320	36960	31216	
4153	0	32308	36956	31236	
4154	0	32320	36964	31210	
4155	0	32306	36962	31212	
4156	0	32312	36984	31184	
4157	0	32320	36972	31200	
4158	0	32324	36960	31220	
4159	0	32324	36944	31216	
4160	0	32304	36984	31188	
4161	0	32304	36956	31216	
4162	0	32324	36928	31196	
4163	0	32324	36920	31200	
4164	0	32308	36900	31208	
4165	0	32312	36870	31184	
4166	0	32320	36868	31204	
4167	0	32344	36876	31244	
4168	0	32344	36908	31232	
4169	0	32332	36908	31204	
4170	0	32332	36912	31196	
4171	0	32324	36952	31152	
4172	0	32312	36972	31124	
4173	0	32314	36988	31080	
4174	0	32320	36988	31080	
4175	0	32336	36980	31096	
4176	0	32348	36980	31152	
4177	0	32352	36972	31120	
4178	0	32328	36960	31108	
4179	0	32332	36960	31088	
4180	0	32344	36972	31080	
4181	0	32332	36980	31052	
4182	0	32316	36980	31084	
4183	0	32304	36980	31040	
4184	0	32320	37000	31064	
4185	0	32304	37028	31056	
4186	0	32304	36992	31060	
4187	0	32284	36984	31068	
4188	0	32276	36988	31084	
4189	0	32276	36968	31072	
4190	0	32276	36964	31096	
4191	0	32292	36936	31100	
4192	0	32314	36916	31146	
4193	0	32312	36892	31164	
4194	0	32292	36892	31152	
4195	0	32276	36940	31128	
4196	0	32280	36922	31096	
4197	0	32312	36888	31144	
4198	0	32304	36884	31144	
4199	0	32300	36884	31162	
4200	0	32304	36896	31160	
4201	0	32296	36888	31196	
4202	0	32306	36860	31204	
4203	0	32316	36856	31188	
4204	0	32316	36864	31176	
4205	0	32296	36868	31160	
4206	0	32300	36874	31148	
4207	0	32304	36920	31124	
4208	0	32302	36908	31120	
4209	0	32296	36884	31120	
4210	0	32320	36916	31104	
4211	0	32320	36924	31104	
4212	0	32344	36892	31096	
4213	0	32332	36916	31100	
4214	0	32320	36920	31092	
4215	0	32332	36924	31064	
4216	0	32320	36928	30984	
4217	0	32316	36940	30936	
4218	0	32320	36956	30928	
4219	0	32352	36944	30928	
4220	0	32336	36948	30944	
4221	0	32336	36922	30974	
4222	0	32352	36900	30944	
4223	0	32356	36884	30954	
4224	0	32372	36880	30968	
4225	0	32348	36900	31016	
4226	0	32360	36864	31024	
4227	0	32352	36880	30996	
4228	0	32368	36888	30968	
4229	0	32388	36888	30956	
4230	0	32368	36904	30976	
4231	0	32348	36918	30976	
4232	0	32356	36952	30944	
4233	0	32342	36976	30888	
4234	0	32352	36968	30890	
4235	0	32348	36964	30896	
4236	0	32344	36932	30916	
4237	0	32352	36920	30880	
4238	0	32356	36904	30890	
4239	0	32352	36920	30916	
4240	0	32336	36912	30938	
4241	0	32320	36932	30932	
4242	0	32340	36928	30962	
4243	0	32336	36916	30984	
4244	0	32340	36912	30996	
4245	0	32348	36890	31032	
4246	0	32348	36856	31008	
4247	0	32332	36880	31000	
4248	0	32336	36864	31005	
4249	0	32328	36864	30976	
4250	0	32316	36864	31000	
4251	0	32324	36872	31010	
4252	0	32348	36848	30940	
4253	0	32360	36844	30936	
4254	0	32332	36778	30936	
4255	0	32428	36700	31060	
4256	0	32353	36752	31108	
4257	0	32332	36760	31098	
4258	0	32344	36744	31020	
4259	0	32328	36780	31016	
4260	0	32328	36804	30984	
4261	0	32320	36808	30980	
4262	0	32312	36808	30972	
4263	0	32300	36826	30908	
4264	0	32292	36828	30904	
4265	0	32284	36856	30888	
4266	0	32288	36852	30852	
4267	0	32288	36856	30848	
4268	0	32296	36848	30816	
4269	0	32308	36844	30824	
4270	0	32324	36836	30808	
4271	0	32332	36832	30812	
4272	0	32312	36808	30836	
4273	0	32340	36776	30837	
4274	0	32332	36768	30804	
4275	0	32336	36784	30768	
4276	0	32344	36760	30744	
4277	0	32328	36764	30740	
4278	0	32316	36772	30802	
4279	0	32352	36772	30856	
4280	0	32368	36740	30844	
4281	0	32356	36746	30824	
4282	0	32352	36784	30793	
4283	0	32336	36800	30756	
4284	0	32336	36808	30728	
4285	0	32316	36836	30712	
4286	0	32314	36832	30704	
4287	0	32320	36814	30728	
4288	0	32316	36796	30732	
4289	0	32308	36808	30727	
4290	0	32296	36820	30744	
4291	0	32312	36792	30720	
4292	0	32304	36782	30752	
4293	0	32298	36782	30804	
4294	0	32328	36752	30808	
4295	0	32336	36728	30832	
4296	0	32340	36728	30856	
4297	0	32360	36724	30868	
4298	0	32344	36736	30892	
4299	0	32352	36716	30882	
4300	0	32352	36700	30888	
4301	0	32346	36728	30856	
4302	0	32312	36776	30804	
4303	0	32292	36796	30761	
4304	0	32280	36792	30764	
4305	0	32300	36801	30712	
4306	0	32276	36800	30692	
4307	0	32256	36804	30688	
4308	0	32260	36796	30668	
4309	0	32248	36780	30616	
4310	0	32272	36744	30644	
4311	0	32284	36700	30660	
4312	0	32296	36696	30692	
4313	0	32300	36672	30732	
4314	0	32320	36648	30764	
4315	0	32308	36656	30764	
4316	0	32284	36682	30748	
4317	0	32300	36664	30757	
4318	0	32284	36680	30748	
4319	0	32264	36696	30734	
4320	0	32284	36700	30724	
4321	0	32272	36716	30696	
4322	0	32276	36700	30712	
4323	0	32272	36704	30654	
4324	0	32260	36730	30608	
4325	0	32288	36720	30636	
4326	0	32292	36728	30644	
4327	0	32300	36748	30648	
4328	0	32268	36758	30584	
4329	0	32268	36768	30562	
4330	0	32272	36756	30576	
4331	0	32292	36724	30612	
4332	0	32292	36680	30644	
4333	0	32288	36692	30696	
4334	0	32272	36688	30664	
4335	0	32256	36676	30656	
4336	0	32264	36640	30632	
4337	0	32240	36660	30664	
4338	0	32232	36672	30680	
4339	0	32224	36676	30716	
4340	0	32228	36716	30694	
4341	0	32232	36728	30712	
4342	0	32252	36724	30696	
4343	0	32268	36708	30688	
4344	0	32248	36724	30668	
4345	0	32260	36700	30634	
4346	0	32234	36714	30620	
4347	0	32240	36736	30604	
4348	0	32244	36716	30600	
4349	0	32232	36726	30548	
4350	0	32216	36740	30536	
4351	0	32220	36712	30580	
4352	0	32240	36684	30588	
4353	0	32244	36656	30592	
4354	0	32236	36656	30612	
4355	0	32224	36648	30628	
4356	0	32236	36612	30672	
4357	0	32212	36612	30692	
4358	0	32196	36650	30624	
4359	0	32168	36680	30584	
4360	0	32172	36692	30562	
4361	0	32164	36688	30576	
4362	0	32168	36656	30572	
4363	0	32176	36678	30580	
4364	0	32192	36644	30616	
4365	0	32204	36640	30632	
4366	0	32200	36608	30656	
4367	0	32188	36600	30652	
4368	0	32164	36572	30624	
4369	0	32160	36592	30624	
4370	0	32144	36616	30584	
4371	0	32136	36640	30544	
4372	0	32128	36656	30500	
4373	0	32148	36648	30468	
4374	0	32152	36632	30496	
4375	0	32154	36632	30528	
4376	0	32172	36612	30532	
4377	0	32200	36608	30552	
4378	0	32184	36632	30532	
4379	0	32188	36612	30532	
4380	0	32192	36624	30520	
4381	0	32180	36628	30506	
4382	0	32176	36644	30532	
4383	0	32176	36628	30512	
4384	0	32172	36616	30540	
4385	0	32168	36632	30554	
4386	0	32164	36640	30570	
4387	0	32176	36672	30540	
4388	0	32194	36632	30561	
4389	0	32192	36616	30568	
4390	0	32168	36632	30556	
4391	0	32184	36636	30568	
4392	0	32200	36608	30592	
4393	0	32212	36614	30624	
4394	0	32224	36596	30640	
4395	0	32208	36652	30628	
4396	0	32220	36656	30608	
4397	0	32200	36656	30632	
4398	0	32186	36664	30600	
4399	0	32188	36660	30576	
4400	0	32198	36668	30568	
4401	0	32228	36620	30560	
4402	0	32240	36628	30564	
4403	0	32240	36608	30560	
4404	0	32228	36624	30540	
4405	0	32220	36636	30548	
4406	0	32216	36666	30552	
4407	0	32216	36680	30576	
4408	0	32224	36700	30588	
4409	0	32260	36636	30600	
4410	0	32228	36708	30680	
4411	0	32256	36649	30596	
4412	0	32248	36680	30560	
4413	0	32256	36676	30570	
4414	0	32328	36636	30488	
4415	0	32232	36768	30542	
4416	0	32208	36824	30644	
4417	0	32280	36688	30584	
4418	0	32280	36648	30520	
4419	0	32196	36740	30688	
4420	0	32226	36680	30608	
4421	0	32248	36652	30676	
4422	0	32224	36624	30556	
4423	0	32180	36640	30668	
4424	0	32184	36568	30636	
4425	0	32164	36556	30544	
4426	0	32120	36612	30404	
4427	0	32160	36660	30480	
4428	0	32120	36684	30476	
4429	0	32148	36692	30496	
4430	0	32204	36586	30416	
4431	0	32152	36624	30528	
4432	0	32154	36588	30588	
4433	0	32128	36584	30462	
4434	0	32148	36556	30484	
4435	0	32156	36480	30496	
4436	0	32116	36476	30484	
4437	0	32036	36564	30320	
4438	0	32064	36560	30341	
4439	0	32068	36546	30360	
4440	0	32084	36512	30364	
4441	0	32084	36500	30438	
4442	0	32084	36496	30456	
4443	0	32060	36496	30452	
4444	0	32068	36484	30472	
4445	0	32056	36500	30416	
4446	0	32036	36528	30416	
4447	0	32096	36500	30500	
4448	0	32088	36516	30528	
4449	0	32052	36528	30472	
4450	0	32052	36556	30492	
4451	0	32112	36504	30484	
4452	0	32092	36512	30438	
4453	0	32088	36572	30448	
4454	0	32104	36596	30448	
4455	0	32104	36612	30400	
4456	0	32096	36608	30394	
4457	0	32130	36584	30448	
4458	0	32130	36536	30426	
4459	0	32140	36552	30492	
4460	0	32160	36528	30492	
4461	0	32168	36524	30548	
4462	0	32136	36560	30520	
4463	0	32112	36614	30592	
4464	0	32152	36632	30572	
4465	0	32168	36612	30528	
4466	0	32168	36592	30506	
4467	0	32160	36580	30464	
4468	0	32144	36580	30464	
4469	0	32160	36568	30468	
4470	0	32136	36556	30464	
4471	0	32120	36564	30504	
4472	0	32112	36572	30450	
4473	0	32134	36528	30476	
4474	0	32112	36548	30436	
4475	0	32152	36508	30528	
4476	0	32136	36484	30464	
4477	0	32128	36480	30532	
4478	0	32116	36464	30544	
4479	0	32108	36508	30528	
4480	0	32112	36512	30472	
4481	0	32136	36508	30500	
4482	0	32148	36516	30520	
4483	0	32152	36536	30452	
4484	0	32168	36560	30464	
4485	0	32168	36588	30448	
4486	0	32104	36612	30316	
4487	0	32124	36608	30380	
4488	0	32108	36584	30364	
4489	0	32108	36600	30376	
4490	0	32100	36576	30356	
4491	0	32120	36532	30388	
4492	0	32122	36516	30380	
4493	0	32108	36496	30376	
4494	0	32090	36500	30368	
4495	0	32080	36520	30364	
4496	0	32064	36540	30340	
4497	0	32072	36541	30336	
4498	0	32068	36520	30384	
4499	0	32088	36488	30400	
4500	0	32096	36484	30420	
4501	0	32096	36504	30444	
4502	0	32096	36488	30456	
4503	0	32096	36492	30444	
4504	0	32092	36520	30436	
4505	0	32112	36556	30432	
4506	0	32096	36574	30404	
4507	0	32112	36572	30416	
4508	0	32112	36604	30420	
4509	0	32140	36616	30432	
4510	0	32116	36632	30412	
4511	0	32124	36608	30408	
4512	0	32120	36588	30392	
4513	0	32112	36544	30372	
4514	0	32104	36536	30356	
4515	0	32092	36504	30376	
4516	0	32088	36472	30356	
4517	0	32080	36444	30360	
4518	0	32080	36424	30376	
4519	0	32060	36420	30420	
4520	0	32066	36412	30408	
4521	0	32052	36404	30376	
4522	0	32076	36432	30380	
4523	0	32088	36432	30394	
4524	0	32096	36456	30424	
4525	0	32092	36492	30376	
4526	0	32104	36508	30364	
4527	0	32080	36538	30324	
4528	0	32104	36528	30292	
4529	0	32096	36544	30288	
4530	0	32104	36560	30324	
4531	0	32100	36572	30304	
4532	0	32096	36588	30304	
4533	0	32100	36592	30294	
4534	0	32112	36580	30304	
4535	0	32108	36596	30316	
4536	0	32116	36582	30316	
4537	0	32112	36564	30340	
4538	0	32112	36560	30368	
4539	0	32172	36560	30576	
4540	0	32154	36468	30493	
4541	0	32150	36432	30488	
4542	0	32120	36442	30446	
4543	0	32156	36428	30564	
4544	0	32128	36428	30524	
4545	0	32132	36468	30436	
4546	0	32144	36536	30432	
4547	0	32164	36536	30376	
4548	0	32152	36560	30322	
4549	0	32156	36576	30304	
4550	0	32172	36544	30324	
4551	0	32172	36512	30336	
4552	0	32160	36504	30328	
4553	0	32176	36516	30368	
4554	0	32188	36488	30364	
4555	0	32180	36468	30376	
4556	0	32192	36480	30408	
4557	0	32188	36464	30392	
4558	0	32216	36436	30400	
4559	0	32228	36472	30444	
4560	0	32186	36506	30412	
4561	0	32188	36500	30376	
4562	0	32180	36504	30356	
4563	0	32208	36472	30368	
4564	0	32192	36468	30372	
4565	0	32200	36488	30392	
4566	0	32200	36484	30416	
4567	0	32236	36476	30432	
4568	0	32208	36496	30418	
4569	0	32192	36512	30356	
4570	0	32160	36524	30352	
4571	0	32144	36532	30320	
4572	0	32140	36512	30320	
4573	0	32140	36488	30336	
4574	0	32108	36488	30296	
4575	0	32120	36464	30284	
4576	0	32100	36444	30248	
4577	0	32080	36480	30176	
4578	0	32080	36424	30160	
4579	0	32094	36372	30232	
4580	0	32148	36356	30340	
4581	0	32176	36404	30440	
4582	0	32164	36464	30436	
4583	0	32168	36480	30440	
4584	0	32148	36504	30396	
4585	0	32152	36512	30332	
4586	0	32140	36496	30272	
4587	0	32140	36504	30208	
4588	0	32136	36480	30188	
4589	0	32128	36480	30176	
4590	0	32128	36444	30176	
4591	0	32112	36424	30176	
4592	0	32120	36400	30176	
4593	0	32116	36392	30216	
4594	0	32104	36352	30280	
4595	0	32112	36372	30248	
4596	0	32130	36364	30240	
4597	0	32120	36384	30232	
4598	0	32116	36400	30204	
4599	0	32092	36420	30200	
4600	0	32104	36432	30178	
4601	0	32100	36456	30224	
4602	0	32128	36472	30168	
4603	0	32132	36448	30160	
4604	0	32144	36440	30176	
4605	0	32160	36416	30200	
4606	0	32152	36416	30264	
4607	0	32176	36436	30276	
4608	0	32168	36440	30280	
4609	0	32146	36468	30264	
4610	0	32148	36472	30202	
4611	0	32140	36460	30206	
4612	0	32144	36460	30224	
4613	0	32124	36428	30212	
4614	0	32148	36396	30228	
4615	0	32136	36372	30188	
4616	0	32168	36364	30208	
4617	0	32160	36400	30236	
4618	0	32152	36448	30220	
4619	0	32160	36464	30240	
4620	0	32168	36474	30256	
4621	0	32168	36488	30272	
4622	0	32272	36448	30446	
4623	0	32304	36372	30464	
4624	0	32236	36428	30344	
