# OpenSignals Text File Format. Version 1
# {"00:07:80:0F:2F:AD": {"position": 0, "device": "biosignalsplux", "device name": "00:07:80:0F:2F:AD", "device connection": "BTH00:07:80:0F:2F:AD", "sampling rate": 1000, "resolution": [16, 16, 16, 16], "firmware version": 776, "comments": "", "keywords": "", "mode": 0, "sync interval": 2, "date": "2024-1-15", "time": "16:6:35.725", "channels": [1, 5, 6, 7], "sensor": ["EMG", "XYZ", "XYZ", "XYZ"], "label": ["CH1", "CH5", "CH6", "CH7"], "column": ["nSeq", "DI", "CH1", "CH5", "CH6", "CH7"], "special": [{"SpO2": [80, 40, 5, 4, 3, 3]}, {"SpO2": [80, 40, 5, 4, 3, 3]}, {"SpO2": [80, 40, 5, 4, 3, 3]}, {"SpO2": [80, 40, 5, 4, 3, 3]}, {"SpO2": [80, 40, 5, 4, 3, 3]}, {"SpO2": [80, 40, 5, 4, 3, 3]}, {"SpO2": [80, 40, 5, 4, 3, 3]}, {"SpO2": [80, 40, 5, 4, 3, 3]}], "digital IO": [0, 1], "sleeve color": ["dark_blue", "white", "white", "white"], "convertedValues": 0}}
# EndOfHeader
0	0	32798	33912	38408	34080	
1	0	32704	33768	38406	34090	
2	0	32676	33888	38388	34117	
3	0	32740	33792	38418	34096	
4	0	32700	33736	38416	34106	
5	0	32744	33956	38406	34100	
6	0	32736	33880	38434	34092	
7	0	32844	33872	38439	34108	
8	0	32772	33880	38446	34100	
9	0	32842	33800	38449	34084	
10	0	32874	33756	38446	34102	
11	0	32886	33746	38472	34101	
12	0	32856	33782	38468	34122	
13	0	32780	33860	38478	34114	
14	0	32812	33840	38492	34118	
15	0	32724	33711	38516	34112	
16	0	32725	33762	38532	34112	
17	0	32780	33732	38518	34108	
18	0	32758	33740	38530	34143	
19	0	32704	33732	38514	34176	
20	0	32724	33926	38536	34180	
21	0	32740	33818	38556	34168	
22	0	32772	33942	38576	34176	
23	0	32742	33708	38556	34176	
24	0	32738	33852	38565	34176	
25	0	32708	33724	38572	34182	
26	0	32772	33828	38584	34180	
27	0	32848	33752	38600	34194	
28	0	32854	33912	38604	34160	
29	0	32800	33888	38606	34154	
30	0	32772	33689	38616	34140	
31	0	32816	33646	38604	34136	
32	0	32858	33756	38600	34128	
33	0	32794	33712	38618	34090	
34	0	32796	33704	38626	34073	
35	0	32820	33706	38590	34092	
36	0	32718	33704	38600	34084	
37	0	32738	33680	38608	34088	
38	0	32778	33924	38596	34094	
39	0	32752	33690	38583	34088	
40	0	32634	33762	38560	34106	
41	0	32636	33688	38548	34116	
42	0	32698	33772	38556	34122	
43	0	32744	33692	38556	34134	
44	0	32768	33716	38548	34152	
45	0	32780	33616	38555	34160	
46	0	32873	33688	38554	34164	
47	0	32886	33742	38566	34158	
48	0	33234	33736	38572	34176	
49	0	33210	33728	38568	34182	
50	0	33028	33760	38552	34202	
51	0	32912	33748	38570	34187	
52	0	33056	33776	38544	34188	
53	0	33320	33844	38536	34186	
54	0	33198	33756	38530	34167	
55	0	32910	33751	38528	34170	
56	0	32788	33880	38518	34198	
57	0	32820	33820	38550	34164	
58	0	33018	33832	38546	34150	
59	0	33076	33808	38556	34142	
60	0	32748	33750	38545	34136	
61	0	32448	33794	38510	34130	
62	0	32129	33870	38508	34114	
63	0	31834	33720	38508	34103	
64	0	31633	33758	38502	34060	
65	0	31624	33778	38496	34052	
66	0	31712	33784	38514	34047	
67	0	31870	33794	38514	34034	
68	0	32086	33848	38512	34044	
69	0	32256	33794	38520	34050	
70	0	32522	33792	38514	34070	
71	0	32922	33972	38506	34072	
72	0	33333	33960	38512	34090	
73	0	33492	34010	38518	34116	
74	0	33288	33866	38530	34132	
75	0	33114	33976	38528	34140	
76	0	33156	33978	38540	34168	
77	0	33020	34032	38516	34182	
78	0	32920	33924	38553	34194	
79	0	32826	34050	38546	34180	
80	0	32814	33954	38546	34194	
81	0	32746	33934	38544	34206	
82	0	32666	33888	38560	34182	
83	0	32678	33848	38572	34194	
84	0	32894	33924	38578	34200	
85	0	33046	33842	38548	34200	
86	0	33178	33780	38552	34216	
87	0	33106	33834	38576	34224	
88	0	33064	33942	38604	34234	
89	0	33074	33706	38604	34239	
90	0	32966	33766	38578	34242	
91	0	32977	33748	38584	34268	
92	0	32912	33844	38612	34266	
93	0	32936	33680	38620	34289	
94	0	32860	33688	38592	34310	
95	0	32856	33766	38612	34338	
96	0	32812	33818	38632	34344	
97	0	32724	33824	38620	34388	
98	0	32702	33834	38626	34416	
99	0	32768	33712	38632	34448	
100	0	32719	33892	38620	34500	
101	0	32700	33740	38628	34526	
102	0	32750	33908	38640	34552	
103	0	32720	33922	38648	34552	
104	0	32732	33815	38660	34532	
105	0	32714	33854	38653	34548	
106	0	32746	33900	38648	34534	
107	0	32746	33912	38648	34520	
108	0	32756	33860	38610	34512	
109	0	32750	33864	38590	34488	
110	0	32678	33844	38584	34464	
111	0	32732	33854	38576	34406	
112	0	32812	33852	38564	34354	
113	0	32778	33954	38574	34316	
114	0	32796	33868	38552	34292	
115	0	32792	33924	38560	34262	
116	0	32828	33884	38534	34225	
117	0	32868	33898	38544	34200	
118	0	32862	33784	38542	34186	
119	0	32744	33792	38528	34186	
120	0	32626	33890	38522	34160	
121	0	32568	33812	38496	34142	
122	0	32624	33926	38528	34128	
123	0	32826	33934	38522	34112	
124	0	32938	33988	38516	34088	
125	0	32906	33966	38488	34080	
126	0	32751	33914	38504	34084	
127	0	32490	33836	38480	34070	
128	0	32494	33946	38452	34052	
129	0	32672	34002	38474	34034	
130	0	32750	33820	38478	33994	
131	0	32648	33810	38462	33974	
132	0	32774	33900	38452	33940	
133	0	32864	33978	38420	33926	
134	0	32882	33874	38415	33932	
135	0	32932	33984	38388	33950	
136	0	32986	34074	38402	33894	
137	0	32940	33940	38409	33864	
138	0	32965	33960	38410	33852	
139	0	32866	33880	38406	33828	
140	0	32812	33897	38392	33827	
141	0	32738	34034	38392	33829	
142	0	32644	34006	38370	33816	
143	0	32858	33882	38364	33818	
144	0	32920	33778	38336	33856	
145	0	32842	33914	38314	33872	
146	0	32792	33838	38328	33896	
147	0	32778	34010	38332	33924	
148	0	32828	33964	38312	33937	
149	0	32686	33916	38331	33948	
150	0	32694	33839	38332	33972	
151	0	32566	33778	38356	34000	
152	0	32258	33883	38348	34031	
153	0	32214	33776	38348	34062	
154	0	32490	33873	38364	34092	
155	0	32628	33874	38416	34092	
156	0	32790	33716	38425	34102	
157	0	32906	33775	38438	34116	
158	0	32975	33796	38472	34120	
159	0	32972	33770	38474	34133	
160	0	33033	33730	38473	34140	
161	0	32946	33760	38498	34148	
162	0	33046	33772	38536	34158	
163	0	32986	33772	38520	34152	
164	0	33000	33724	38530	34156	
165	0	32900	33850	38554	34144	
166	0	32836	33862	38562	34148	
167	0	32768	33810	38552	34152	
168	0	32830	33634	38548	34148	
169	0	32776	33656	38549	34157	
170	0	32758	33792	38592	34156	
171	0	32700	33785	38568	34146	
172	0	32590	33586	38562	34136	
173	0	32484	33676	38578	34140	
174	0	32582	33626	38560	34132	
175	0	32766	33690	38564	34148	
176	0	33088	33706	38552	34150	
177	0	33034	33742	38564	34158	
178	0	32914	33698	38568	34148	
179	0	32832	33649	38566	34164	
180	0	32884	33646	38554	34192	
181	0	32876	33720	38556	34184	
182	0	32807	33656	38568	34184	
183	0	32592	33648	38552	34188	
184	0	32537	33678	38548	34182	
185	0	32516	33704	38552	34176	
186	0	32392	33536	38520	34184	
187	0	32354	33510	38524	34176	
188	0	32415	33684	38540	34132	
189	0	32356	33724	38536	34126	
190	0	32428	33533	38500	34110	
191	0	32606	33524	38539	34076	
192	0	32694	33606	38498	34064	
193	0	32958	33572	38516	34063	
194	0	33164	33494	38528	34028	
195	0	33342	33570	38466	34016	
196	0	33096	33594	38450	34000	
197	0	33076	33607	38460	33966	
198	0	33006	33616	38452	33944	
199	0	32820	33586	38426	33952	
200	0	32788	33666	38398	33962	
201	0	32846	33606	38404	33948	
202	0	32866	33751	38394	33952	
203	0	32896	33696	38428	33924	
204	0	32870	33768	38424	33922	
205	0	32794	33798	38426	33899	
206	0	32714	33763	38410	33911	
207	0	32722	33876	38412	33890	
208	0	32772	33910	38420	33890	
209	0	32816	33766	38412	33914	
210	0	32870	33900	38430	33888	
211	0	32702	33888	38433	33902	
212	0	32688	33802	38414	33884	
213	0	32782	33964	38410	33902	
214	0	32828	33872	38397	33924	
215	0	32813	33828	38383	33916	
216	0	32710	33828	38410	33896	
217	0	32724	33911	38388	33922	
218	0	32766	33966	38380	33910	
219	0	32792	33898	38388	33932	
220	0	32746	33852	38412	33908	
221	0	32632	33945	38422	33892	
222	0	32646	33942	38424	33874	
223	0	32698	33876	38416	33892	
224	0	32694	33886	38440	33898	
225	0	32738	33980	38452	33912	
226	0	32784	33944	38458	33924	
227	0	32756	33858	38474	33944	
228	0	32776	33820	38464	33948	
229	0	32752	33827	38466	33968	
230	0	32823	33930	38504	33984	
231	0	32816	33882	38518	33996	
232	0	32849	33900	38510	34004	
233	0	33004	33962	38530	34012	
234	0	32912	33938	38562	33992	
235	0	32996	34014	38578	34016	
236	0	32968	33828	38585	34022	
237	0	32828	33963	38588	34036	
238	0	32668	33854	38612	34010	
239	0	32660	33882	38606	34000	
240	0	32770	33890	38604	33988	
241	0	32776	33910	38624	33964	
242	0	32516	33887	38610	33948	
243	0	32452	33952	38596	33960	
244	0	32618	33780	38578	33940	
245	0	32650	33776	38592	33911	
246	0	32672	33820	38592	33897	
247	0	32737	33754	38550	33896	
248	0	32786	33770	38538	33908	
249	0	32831	33788	38534	33896	
250	0	32944	33712	38528	33901	
251	0	32914	33794	38524	33914	
252	0	32828	33762	38504	33928	
253	0	32916	33738	38500	33948	
254	0	32806	33766	38494	33972	
255	0	32839	33858	38468	33976	
256	0	32748	33786	38474	33996	
257	0	32656	33764	38449	34020	
258	0	32666	33809	38436	34020	
259	0	32790	33836	38458	34028	
260	0	32856	33749	38472	34042	
261	0	32810	33850	38434	34042	
262	0	32805	33850	38418	34042	
263	0	32808	33772	38426	34032	
264	0	32858	33848	38422	34032	
265	0	32820	33896	38416	34026	
266	0	32842	33764	38404	34006	
267	0	32802	33827	38420	34002	
268	0	32862	33904	38416	33972	
269	0	32928	33802	38420	33952	
270	0	32826	33948	38437	33936	
271	0	32768	33946	38442	33898	
272	0	32718	33792	38416	33868	
273	0	32800	33908	38434	33858	
274	0	32762	33792	38410	33834	
275	0	32912	33796	38372	33856	
276	0	33064	33918	38420	33817	
277	0	32994	33904	38420	33800	
278	0	32794	33772	38418	33797	
279	0	32690	33958	38428	33767	
280	0	32584	33814	38446	33756	
281	0	32517	33760	38448	33748	
282	0	32368	33926	38452	33748	
283	0	32596	33876	38460	33735	
284	0	32740	33882	38460	33740	
285	0	32792	33888	38462	33738	
286	0	32752	33818	38464	33744	
287	0	32726	33824	38448	33724	
288	0	32616	33740	38484	33750	
289	0	32588	33866	38476	33752	
290	0	32489	33824	38470	33784	
291	0	32516	33764	38504	33780	
292	0	32674	33692	38476	33808	
293	0	32944	33722	38478	33846	
294	0	33064	33800	38492	33856	
295	0	33087	33818	38484	33890	
296	0	32932	33752	38460	33904	
297	0	32848	33900	38458	33906	
298	0	32840	33762	38456	33928	
299	0	32878	33836	38448	33969	
300	0	32846	33796	38435	34000	
301	0	32868	33856	38432	34020	
302	0	32856	33774	38446	34042	
303	0	32934	33734	38428	34060	
304	0	32964	33802	38424	34084	
305	0	33012	33780	38402	34104	
306	0	33182	33802	38400	34104	
307	0	33280	33876	38368	34158	
308	0	33399	33848	38386	34163	
309	0	33148	33782	38383	34184	
310	0	32900	33840	38408	34168	
311	0	32601	33852	38392	34198	
312	0	32110	33721	38401	34200	
313	0	31766	33872	38394	34220	
314	0	31880	33890	38400	34232	
315	0	32060	33898	38410	34220	
316	0	32212	33948	38426	34231	
317	0	32420	33808	38450	34236	
318	0	32640	33908	38440	34244	
319	0	32712	33880	38480	34237	
320	0	32810	33926	38474	34236	
321	0	32808	34034	38512	34210	
322	0	32750	33885	38512	34213	
323	0	32694	33930	38520	34213	
324	0	32852	34000	38560	34204	
325	0	33012	33974	38576	34196	
326	0	33206	33900	38590	34176	
327	0	33200	33904	38584	34160	
328	0	33124	33880	38608	34138	
329	0	33176	34044	38628	34156	
330	0	33218	33886	38624	34132	
331	0	33102	33974	38622	34140	
332	0	32966	33954	38618	34134	
333	0	32852	33930	38612	34124	
334	0	32722	33903	38626	34138	
335	0	32616	33998	38620	34130	
336	0	32660	33914	38604	34152	
337	0	32596	34028	38656	34154	
338	0	32540	33998	38644	34148	
339	0	32706	33904	38656	34148	
340	0	32729	33850	38660	34132	
341	0	32736	33856	38642	34142	
342	0	32722	33870	38644	34152	
343	0	32794	33810	38660	34104	
344	0	32942	33902	38640	34104	
345	0	33154	33812	38632	34090	
346	0	33696	33848	38624	34090	
347	0	33704	33914	38639	34084	
348	0	33425	33932	38612	34069	
349	0	33098	33804	38604	34060	
350	0	32810	33824	38575	34064	
351	0	32430	33868	38551	34066	
352	0	32004	33816	38548	34060	
353	0	31702	33846	38546	34056	
354	0	31586	33810	38512	34068	
355	0	31694	33943	38516	34052	
356	0	31818	33786	38500	34072	
357	0	31950	33900	38474	34080	
358	0	32057	33876	38441	34113	
359	0	32476	33874	38426	34126	
360	0	32758	33918	38408	34141	
361	0	33128	33972	38404	34159	
362	0	33582	33980	38414	34176	
363	0	33684	34052	38400	34184	
364	0	33716	33920	38400	34202	
365	0	33938	33886	38382	34222	
366	0	33946	33942	38352	34248	
367	0	33844	34028	38400	34234	
368	0	33494	33888	38362	34269	
369	0	32876	33928	38372	34292	
370	0	32398	34010	38380	34308	
371	0	32052	34026	38392	34312	
372	0	31706	33892	38396	34313	
373	0	31582	33940	38412	34308	
374	0	31626	33850	38436	34304	
375	0	31764	34030	38450	34306	
376	0	32080	33902	38478	34288	
377	0	32416	34058	38464	34282	
378	0	32600	34052	38492	34272	
379	0	32796	34062	38528	34280	
380	0	33112	34113	38522	34260	
381	0	33303	33998	38538	34246	
382	0	33422	34070	38538	34238	
383	0	33444	34164	38576	34218	
384	0	33420	34104	38598	34194	
385	0	33256	34054	38620	34170	
386	0	33240	33972	38622	34164	
387	0	33018	34088	38620	34148	
388	0	32976	33988	38612	34134	
389	0	32953	33954	38592	34138	
390	0	32960	34120	38612	34138	
391	0	32844	34058	38626	34124	
392	0	32848	34095	38600	34126	
393	0	32776	34212	38630	34120	
394	0	32664	34050	38620	34136	
395	0	32554	34056	38615	34128	
396	0	32524	34044	38587	34164	
397	0	32525	34088	38629	34162	
398	0	32516	33908	38636	34178	
399	0	32556	33969	38598	34196	
400	0	32616	34094	38612	34216	
401	0	32716	34045	38616	34230	
402	0	32925	34050	38604	34236	
403	0	33026	34179	38592	34242	
404	0	32983	34076	38588	34260	
405	0	33090	34048	38610	34248	
406	0	33000	34066	38624	34263	
407	0	32912	34080	38600	34266	
408	0	32699	33909	38576	34274	
409	0	32479	34032	38584	34252	
410	0	32430	34067	38578	34248	
411	0	32344	34136	38554	34254	
412	0	32337	34113	38523	34240	
413	0	32340	34018	38519	34230	
414	0	32364	34144	38494	34205	
415	0	32543	34048	38498	34180	
416	0	32738	34048	38487	34154	
417	0	32933	34138	38470	34126	
418	0	33069	34198	38462	34088	
419	0	33040	34116	38466	34098	
420	0	33108	34158	38442	34063	
421	0	33058	34208	38440	34060	
422	0	32968	34086	38428	34038	
423	0	33016	34148	38428	34014	
424	0	32876	34184	38420	34002	
425	0	32896	34196	38410	34004	
426	0	32834	34166	38418	33964	
427	0	32746	34076	38416	33962	
428	0	32736	34136	38415	33966	
429	0	32716	34202	38419	33964	
430	0	32776	34153	38447	33964	
431	0	32780	34096	38436	33956	
432	0	32742	34084	38432	33972	
433	0	32922	34100	38428	33992	
434	0	33010	33994	38440	33984	
435	0	33254	33968	38448	33988	
436	0	33178	34073	38464	34014	
437	0	32977	33934	38474	34012	
438	0	32872	33988	38500	34016	
439	0	32762	34034	38531	34032	
440	0	32592	33978	38516	34048	
441	0	32628	33966	38506	34052	
442	0	32466	33849	38504	34064	
443	0	32434	33991	38516	34072	
444	0	32440	34016	38529	34084	
445	0	32426	33992	38550	34080	
446	0	32292	33964	38549	34082	
447	0	32284	33996	38580	34094	
448	0	32302	34084	38564	34106	
449	0	32356	34004	38616	34116	
450	0	32494	34066	38596	34136	
451	0	32740	33994	38600	34136	
452	0	32991	34010	38589	34168	
453	0	33000	34014	38594	34176	
454	0	33044	34084	38614	34176	
455	0	33121	34158	38642	34176	
456	0	33079	34023	38638	34170	
457	0	33235	33978	38642	34158	
458	0	33194	34048	38632	34176	
459	0	33112	34246	38632	34168	
460	0	32920	34026	38638	34158	
461	0	32764	34102	38636	34168	
462	0	32811	34086	38628	34160	
463	0	32880	34102	38636	34164	
464	0	32856	33978	38650	34182	
465	0	32736	33982	38632	34172	
466	0	32560	33986	38612	34168	
467	0	32422	34074	38614	34184	
468	0	32488	33950	38616	34187	
469	0	32578	33900	38588	34196	
470	0	32532	33892	38604	34212	
471	0	32777	34056	38588	34240	
472	0	32900	34054	38594	34250	
473	0	32922	33998	38586	34264	
474	0	32718	33896	38606	34276	
475	0	32780	33924	38588	34276	
476	0	32820	33980	38590	34286	
477	0	32816	33828	38616	34272	
478	0	32890	33904	38640	34264	
479	0	32958	33812	38642	34272	
480	0	32930	33836	38644	34274	
481	0	32976	34064	38612	34256	
482	0	32900	34008	38632	34250	
483	0	32794	33830	38636	34218	
484	0	32696	34056	38636	34204	
485	0	32790	33948	38636	34188	
486	0	32692	33940	38622	34150	
487	0	32680	33904	38641	34134	
488	0	32800	34122	38612	34125	
489	0	32792	34008	38606	34086	
490	0	32874	33960	38598	34052	
491	0	32870	33940	38596	34031	
492	0	32836	33940	38598	34032	
493	0	32760	33960	38560	33982	
494	0	32564	33976	38572	33958	
495	0	32522	33983	38560	33958	
496	0	32570	34090	38570	33934	
497	0	32710	33927	38548	33911	
498	0	32904	34034	38564	33900	
499	0	33174	34052	38544	33888	
500	0	33188	33846	38518	33876	
501	0	33132	33854	38522	33872	
502	0	33130	34048	38536	33884	
503	0	32915	33944	38532	33870	
504	0	32791	34074	38524	33876	
505	0	32751	34028	38552	33898	
506	0	32566	34120	38532	33898	
507	0	32324	33868	38552	33890	
508	0	32188	33828	38516	33932	
509	0	32080	33912	38538	33948	
510	0	32132	33916	38505	33957	
511	0	32142	33964	38530	33962	
512	0	32290	34066	38528	33986	
513	0	32450	33942	38564	33994	
514	0	32673	33848	38566	33998	
515	0	32810	33908	38536	34012	
516	0	32943	33970	38560	34031	
517	0	32951	34046	38580	34026	
518	0	32930	33944	38608	34021	
519	0	33028	33968	38610	34008	
520	0	33446	34062	38580	34029	
521	0	33534	33996	38584	34004	
522	0	33344	34022	38580	33980	
523	0	33146	34024	38586	33962	
524	0	33072	33906	38600	33948	
525	0	32816	33920	38593	33946	
526	0	32619	33848	38586	33928	
527	0	32546	33860	38600	33896	
528	0	32495	33881	38580	33896	
529	0	32584	33996	38554	33904	
530	0	32594	33876	38536	33906	
531	0	32688	33882	38538	33938	
532	0	32480	33775	38524	33958	
533	0	32526	33860	38500	33972	
534	0	32662	33816	38476	33986	
535	0	32658	33914	38457	34000	
536	0	32768	33906	38458	34010	
537	0	32986	33972	38444	34012	
538	0	32992	33810	38460	34026	
539	0	33046	33890	38460	34036	
540	0	32994	33880	38460	34056	
541	0	32980	33932	38466	34048	
542	0	32966	33884	38455	34062	
543	0	32990	33800	38452	34088	
544	0	32940	33912	38455	34088	
545	0	32772	33900	38456	34116	
546	0	32678	33788	38438	34090	
547	0	32904	33718	38434	34112	
548	0	32962	33892	38442	34098	
549	0	32810	33783	38444	34084	
550	0	32660	33852	38474	34098	
551	0	32553	33784	38428	34074	
552	0	32516	33835	38420	34086	
553	0	32504	33858	38436	34074	
554	0	32436	33885	38425	34064	
555	0	32472	33740	38420	34042	
556	0	32452	33835	38428	34024	
557	0	32450	34012	38440	33991	
558	0	32698	33890	38434	33972	
559	0	32822	33838	38438	33960	
560	0	32858	34052	38464	33930	
561	0	32890	33914	38447	33892	
562	0	33184	33852	38428	33898	
563	0	33504	33908	38440	33864	
564	0	33344	33822	38432	33856	
565	0	33220	33848	38432	33846	
566	0	33004	33892	38416	33850	
567	0	32976	33940	38404	33830	
568	0	32778	33840	38384	33893	
569	0	32522	33745	38418	33880	
570	0	32300	33910	38376	33922	
571	0	32242	33711	38370	33942	
572	0	32240	33916	38412	33910	
573	0	32148	33852	38412	33928	
574	0	32308	33896	38403	33938	
575	0	32606	33922	38426	33936	
576	0	32972	33908	38426	33938	
577	0	33306	33906	38425	33956	
578	0	33218	33882	38418	33945	
579	0	32880	33796	38426	33954	
580	0	32708	33911	38404	33932	
581	0	32730	33834	38400	33912	
582	0	32810	33944	38408	33896	
583	0	33252	33898	38406	33896	
584	0	33468	33940	38402	33880	
585	0	33191	33898	38412	33874	
586	0	32906	33922	38402	33844	
587	0	32610	33924	38374	33849	
588	0	32160	34020	38370	33864	
589	0	31904	33876	38384	33848	
590	0	31924	33840	38392	33844	
591	0	32100	33986	38354	33843	
592	0	32276	34004	38368	33856	
593	0	32392	34064	38322	33860	
594	0	32370	33998	38336	33878	
595	0	32364	33935	38332	33906	
596	0	32552	33988	38288	33930	
597	0	32780	34058	38308	33950	
598	0	33084	33973	38304	33962	
599	0	33418	34024	38302	33988	
600	0	33574	34064	38294	33986	
601	0	33506	33974	38308	34002	
602	0	33596	33976	38311	34020	
603	0	33816	33940	38300	34012	
604	0	33820	34018	38302	34018	
605	0	33712	33939	38290	34028	
606	0	33238	33912	38320	34020	
607	0	32860	34098	38326	34020	
608	0	32361	33832	38352	34028	
609	0	31992	33950	38356	34032	
610	0	31808	33992	38352	34058	
611	0	31858	34010	38342	34076	
612	0	31972	33946	38358	34092	
613	0	32164	34008	38338	34101	
614	0	32404	34108	38341	34116	
615	0	32594	33908	38354	34136	
616	0	32706	33944	38368	34127	
617	0	32924	33866	38382	34148	
618	0	33022	33862	38368	34160	
619	0	33084	33752	38356	34168	
620	0	33100	33896	38354	34166	
621	0	33107	34024	38358	34156	
622	0	32940	33924	38350	34172	
623	0	32832	33968	38368	34188	
624	0	32768	33850	38384	34157	
625	0	32796	33846	38343	34178	
626	0	32759	33856	38350	34178	
627	0	32896	33916	38365	34152	
628	0	33082	33810	38376	34136	
629	0	33074	33932	38378	34127	
630	0	32974	34000	38344	34114	
631	0	32788	34016	38376	34086	
632	0	32652	33938	38362	34054	
633	0	32612	33844	38368	34037	
634	0	32556	33996	38344	34044	
635	0	32572	33752	38344	34016	
636	0	32837	33816	38353	33994	
637	0	32860	33966	38362	33976	
638	0	33110	33920	38330	33956	
639	0	33168	33904	38336	33940	
640	0	32944	33896	38342	33922	
641	0	32910	33792	38324	33903	
642	0	32962	33842	38318	33902	
643	0	32920	33963	38340	33868	
644	0	32808	33960	38336	33874	
645	0	33190	33914	38316	33870	
646	0	33672	33962	38300	33856	
647	0	33396	33900	38326	33852	
648	0	32758	33872	38320	33850	
649	0	32154	33888	38342	33860	
650	0	31786	33924	38332	33852	
651	0	31500	33895	38336	33859	
652	0	31574	33926	38340	33862	
653	0	31789	33996	38320	33870	
654	0	31890	33900	38350	33858	
655	0	32046	33928	38340	33882	
656	0	32308	34004	38330	33888	
657	0	32724	33924	38334	33890	
658	0	33256	33972	38368	33894	
659	0	33910	34026	38347	33904	
660	0	34700	33984	38344	33886	
661	0	34586	34056	38365	33884	
662	0	34072	34090	38382	33888	
663	0	33537	33908	38360	33896	
664	0	33476	34006	38364	33892	
665	0	32846	34010	38378	33912	
666	0	31974	33954	38388	33920	
667	0	31414	33898	38388	33902	
668	0	31274	33904	38394	33908	
669	0	31272	33908	38418	33900	
670	0	31208	33936	38434	33908	
671	0	31258	34020	38416	33924	
672	0	31360	34044	38426	33944	
673	0	32028	34048	38447	33966	
674	0	32852	33952	38440	33996	
675	0	33416	33988	38448	33999	
676	0	33890	33950	38442	34030	
677	0	33897	33980	38456	34044	
678	0	34021	34048	38464	34078	
679	0	34054	34074	38458	34082	
680	0	34892	34110	38444	34104	
681	0	35588	34074	38444	34140	
682	0	34314	34064	38460	34164	
683	0	32670	33964	38446	34166	
684	0	31381	34013	38428	34184	
685	0	31190	33972	38428	34190	
686	0	31906	34010	38441	34198	
687	0	32080	33920	38432	34202	
688	0	32398	34042	38418	34200	
689	0	32260	33980	38426	34186	
690	0	32116	33952	38452	34176	
691	0	32574	34042	38460	34194	
692	0	32858	33984	38431	34176	
693	0	32602	34090	38460	34156	
694	0	32286	34004	38484	34136	
695	0	32048	33996	38484	34130	
696	0	32262	33952	38506	34111	
697	0	32520	33954	38504	34112	
698	0	32644	33920	38494	34095	
699	0	33028	34020	38492	34098	
700	0	33068	33952	38472	34086	
701	0	32962	33948	38523	34042	
702	0	32795	34018	38506	34036	
703	0	32622	33892	38514	34028	
704	0	32788	33822	38506	34004	
705	0	33200	33896	38506	33973	
706	0	33948	33898	38508	33968	
707	0	34250	33884	38502	33948	
708	0	34268	33968	38492	33943	
709	0	34244	33940	38490	33920	
710	0	34124	33914	38480	33920	
711	0	35464	34012	38503	33892	
712	0	34772	33922	38476	33898	
713	0	33252	33764	38470	33896	
714	0	32110	33722	38492	33870	
715	0	31288	33822	38464	33878	
716	0	30652	33790	38456	33888	
717	0	30074	33696	38490	33888	
718	0	29708	33828	38462	33894	
719	0	30116	33718	38462	33898	
720	0	31196	33680	38480	33904	
721	0	31928	33853	38496	33912	
722	0	31764	33795	38502	33896	
723	0	31642	33842	38494	33896	
724	0	31952	33864	38488	33878	
725	0	32242	33866	38518	33888	
726	0	32704	33866	38514	33890	
727	0	33434	33855	38492	33912	
728	0	33647	33978	38498	33920	
729	0	33424	33914	38482	33920	
730	0	33544	33866	38500	33915	
731	0	34020	34056	38510	33922	
732	0	34214	33966	38520	33928	
733	0	34080	33890	38512	33935	
734	0	33976	34090	38516	33930	
735	0	33860	34046	38512	33948	
736	0	33608	33959	38514	33946	
737	0	33908	34102	38528	33968	
738	0	34340	33942	38544	33982	
739	0	34316	33967	38502	33988	
740	0	33850	33948	38512	33982	
741	0	33094	33998	38516	33988	
742	0	32364	33962	38552	34016	
743	0	32284	33912	38532	34012	
744	0	34124	33986	38530	34047	
745	0	32606	34020	38536	34048	
746	0	30886	33836	38576	34072	
747	0	29472	33886	38590	34086	
748	0	29300	33842	38604	34094	
749	0	29860	33831	38602	34104	
750	0	30577	33817	38604	34106	
751	0	31418	33925	38614	34136	
752	0	32314	34024	38612	34164	
753	0	33047	34030	38614	34202	
754	0	33936	33967	38636	34210	
755	0	34504	34048	38634	34222	
756	0	34604	34094	38624	34260	
757	0	34476	33998	38664	34274	
758	0	34454	34084	38663	34288	
759	0	34234	34128	38646	34304	
760	0	35392	34064	38664	34304	
761	0	37108	34192	38656	34286	
762	0	35572	34048	38630	34274	
763	0	33324	34072	38633	34274	
764	0	33069	34032	38618	34288	
765	0	35150	34117	38609	34320	
766	0	36788	34154	38600	34318	
767	0	35200	34176	38614	34298	
768	0	32662	33952	38592	34304	
769	0	28698	33807	38604	34291	
770	0	25756	33824	38600	34276	
771	0	24288	33888	38602	34248	
772	0	24662	33866	38632	34210	
773	0	26140	33944	38636	34184	
774	0	29106	34030	38632	34176	
775	0	31314	34260	38646	34158	
776	0	33331	34186	38624	34143	
777	0	35850	34158	38632	34136	
778	0	37448	34338	38626	34118	
779	0	36284	34306	38592	34112	
780	0	34888	34400	38640	34100	
781	0	33590	34410	38614	34106	
782	0	33016	34304	38626	34088	
783	0	33401	34198	38607	34072	
784	0	35504	34361	38604	34082	
785	0	33486	34292	38602	34082	
786	0	32196	34260	38556	34080	
787	0	29879	34224	38562	34088	
788	0	28800	34364	38554	34104	
789	0	29496	34202	38516	34137	
790	0	31042	34292	38512	34170	
791	0	33375	34286	38510	34216	
792	0	35234	34426	38511	34280	
793	0	35676	34458	38528	34298	
794	0	35324	34400	38542	34348	
795	0	34726	34522	38574	34396	
796	0	34088	34432	38599	34410	
797	0	33146	34400	38600	34444	
798	0	32642	34420	38603	34462	
799	0	32844	34356	38576	34496	
800	0	32617	34242	38610	34470	
801	0	32378	34332	38636	34472	
802	0	32490	34250	38626	34464	
803	0	32672	34330	38632	34428	
804	0	33216	34268	38649	34429	
805	0	33792	34162	38656	34394	
806	0	33708	34138	38628	34338	
807	0	33398	34088	38632	34304	
808	0	33206	34108	38588	34266	
809	0	32938	34004	38584	34238	
810	0	32626	33952	38576	34202	
811	0	32422	34010	38560	34200	
812	0	32460	33986	38564	34208	
813	0	32468	33896	38582	34176	
814	0	32614	33958	38555	34192	
815	0	32651	33812	38552	34191	
816	0	32748	33810	38558	34176	
817	0	32712	33808	38548	34162	
818	0	32810	33700	38572	34152	
819	0	32816	33844	38592	34128	
820	0	32770	33673	38574	34097	
821	0	32864	33742	38560	34066	
822	0	32802	33694	38572	34037	
823	0	32788	33828	38566	33998	
824	0	32806	33808	38586	33965	
825	0	32850	33656	38580	33932	
826	0	32680	33498	38576	33888	
827	0	32604	33653	38598	33834	
828	0	32500	33756	38580	33818	
829	0	32684	33655	38575	33774	
830	0	32932	33860	38572	33736	
831	0	34010	33696	38568	33720	
832	0	34750	33682	38548	33706	
833	0	33618	33780	38540	33672	
834	0	32374	33740	38530	33650	
835	0	31248	33762	38544	33622	
836	0	30970	33668	38500	33580	
837	0	31020	33730	38494	33572	
838	0	31244	33806	38494	33544	
839	0	31582	33836	38490	33549	
840	0	31880	33943	38452	33562	
841	0	32244	33920	38456	33542	
842	0	32706	33948	38472	33524	
843	0	33510	34034	38460	33534	
844	0	35200	34140	38444	33521	
845	0	35034	34202	38470	33538	
846	0	34246	34132	38460	33540	
847	0	33658	34224	38474	33560	
848	0	34076	34100	38480	33582	
849	0	36278	34140	38454	33624	
850	0	36158	34344	38466	33644	
851	0	33836	34121	38456	33664	
852	0	30344	33972	38468	33692	
853	0	28714	34113	38458	33726	
854	0	28110	33954	38456	33780	
855	0	27948	33980	38454	33812	
856	0	28694	33949	38473	33859	
857	0	29708	33988	38432	33902	
858	0	30981	34032	38428	33934	
859	0	32258	34224	38441	33972	
860	0	32754	34006	38436	34005	
861	0	33386	34088	38426	34040	
862	0	33775	34058	38426	34052	
863	0	34570	34319	38420	34092	
864	0	35282	34272	38400	34114	
865	0	35342	34230	38404	34152	
866	0	34672	34300	38419	34166	
867	0	34560	34216	38426	34202	
868	0	34474	34168	38392	34230	
869	0	34342	34240	38402	34232	
870	0	33868	34145	38388	34280	
871	0	34330	34184	38364	34280	
872	0	35207	34364	38348	34288	
873	0	34818	34308	38356	34272	
874	0	33732	34184	38346	34260	
875	0	32616	34118	38335	34231	
876	0	32110	34176	38358	34204	
877	0	31464	34130	38336	34176	
878	0	30612	34048	38368	34134	
879	0	30162	34086	38354	34112	
880	0	30278	34159	38354	34100	
881	0	30211	33948	38368	34066	
882	0	30254	34180	38380	34030	
883	0	30562	34119	38378	34032	
884	0	31348	34250	38372	33992	
885	0	32378	34162	38368	33988	
886	0	33700	34180	38364	33972	
887	0	35285	34434	38372	33964	
888	0	37458	34452	38366	33946	
889	0	38234	34404	38370	33920	
890	0	37260	34394	38368	33924	
891	0	34152	34408	38368	33888	
892	0	32008	34336	38368	33880	
893	0	32446	34322	38394	33866	
894	0	30890	34396	38400	33810	
895	0	29600	34304	38400	33776	
896	0	28795	34426	38432	33768	
897	0	28300	34320	38455	33740	
898	0	30536	34372	38424	33728	
899	0	32774	34358	38423	33704	
900	0	32286	34383	38436	33716	
901	0	31572	34508	38420	33720	
902	0	31744	34450	38390	33768	
903	0	32180	34532	38411	33742	
904	0	32588	34620	38413	33748	
905	0	32392	34398	38402	33772	
906	0	34102	34576	38383	33840	
907	0	36358	34656	38376	33859	
908	0	36505	34588	38378	33878	
909	0	34704	34500	38377	33908	
910	0	32630	34508	38382	33962	
911	0	31324	34620	38384	34012	
912	0	30724	34502	38390	34056	
913	0	31004	34472	38412	34076	
914	0	31852	34410	38392	34151	
915	0	32452	34308	38404	34162	
916	0	33132	34352	38408	34178	
917	0	33596	34304	38440	34202	
918	0	33820	34318	38414	34214	
919	0	33906	34258	38430	34237	
920	0	34234	34345	38422	34229	
921	0	34510	34340	38408	34226	
922	0	34950	34236	38442	34208	
923	0	35360	34200	38430	34188	
924	0	34884	34069	38448	34166	
925	0	33616	34164	38452	34158	
926	0	31984	34154	38444	34122	
927	0	30870	34072	38434	34110	
928	0	30694	33980	38444	34081	
929	0	33425	33944	38446	34056	
930	0	37376	34084	38432	34036	
931	0	37422	33992	38424	34014	
932	0	34670	33992	38444	33980	
933	0	31644	33852	38436	33968	
934	0	29116	33626	38440	33926	
935	0	30870	33864	38456	33904	
936	0	31446	33898	38480	33904	
937	0	30189	33764	38450	33906	
938	0	28684	33778	38458	33920	
939	0	28424	33684	38457	33956	
940	0	28644	33820	38466	33968	
941	0	28616	33756	38482	33956	
942	0	29056	33872	38476	33992	
943	0	30658	34022	38496	34008	
944	0	32650	34088	38512	34042	
945	0	33792	34102	38512	34102	
946	0	33876	34180	38528	34115	
947	0	34312	34246	38554	34122	
948	0	35172	34272	38574	34130	
949	0	35258	34380	38568	34156	
950	0	34874	34326	38580	34172	
951	0	34280	34432	38594	34176	
952	0	34328	34344	38602	34180	
953	0	34678	34444	38586	34176	
954	0	34642	34288	38570	34136	
955	0	34544	34240	38556	34128	
956	0	34092	34412	38559	34111	
957	0	34152	34184	38524	34086	
958	0	33994	34192	38524	34078	
959	0	33748	34176	38518	34072	
960	0	33758	34038	38500	34084	
961	0	34426	34160	38472	34080	
962	0	38762	34154	38466	34078	
963	0	42376	34148	38436	34074	
964	0	38768	34160	38436	34102	
965	0	32570	33863	38452	34135	
966	0	27662	33804	38452	34168	
967	0	26112	33726	38440	34198	
968	0	25663	33760	38448	34238	
969	0	24876	33692	38434	34296	
970	0	24806	33644	38450	34304	
971	0	25820	33738	38490	34320	
972	0	27400	33728	38498	34351	
973	0	29160	33652	38499	34368	
974	0	30740	33824	38528	34382	
975	0	32473	33810	38537	34358	
976	0	34410	34080	38538	34332	
977	0	35980	34100	38546	34274	
978	0	36472	34164	38550	34187	
979	0	36364	34138	38564	34142	
980	0	36176	34128	38540	34081	
981	0	35730	34174	38528	33988	
982	0	35445	34128	38516	33924	
983	0	35058	34180	38478	33840	
984	0	34248	34040	38480	33752	
985	0	34296	34026	38466	33716	
986	0	34610	34100	38412	33670	
987	0	37962	34146	38416	33644	
988	0	46568	33989	38372	33648	
989	0	43338	34088	38380	33628	
990	0	35116	34104	38352	33624	
991	0	28032	33989	38348	33644	
992	0	24342	33902	38354	33658	
993	0	21982	33964	38356	33692	
994	0	21484	33924	38352	33748	
995	0	22384	34049	38366	33808	
996	0	24523	34160	38380	33856	
997	0	26848	34216	38392	33928	
998	0	29032	34294	38388	34008	
999	0	31188	34518	38404	34020	
1000	0	33244	34498	38436	34100	
1001	0	35556	34764	38416	34164	
1002	0	37304	34750	38436	34240	
1003	0	37268	34802	38434	34292	
1004	0	36872	34906	38456	34334	
1005	0	36891	34848	38446	34365	
1006	0	38286	34944	38468	34366	
1007	0	37872	34956	38456	34382	
1008	0	36006	34810	38448	34396	
1009	0	33098	34488	38416	34376	
1010	0	30918	34548	38420	34342	
1011	0	30476	34398	38416	34308	
1012	0	30794	34552	38442	34232	
1013	0	31738	34537	38428	34195	
1014	0	32204	34506	38400	34212	
1015	0	33140	34336	38363	34238	
1016	0	34308	34304	38348	34238	
1017	0	38116	34408	38314	34220	
1018	0	38490	34380	38296	34198	
1019	0	38704	34344	38252	34184	
1020	0	41224	34330	38232	34148	
1021	0	39659	34400	38190	34117	
1022	0	32986	34222	38176	34117	
1023	0	26220	34216	38189	34104	
1024	0	22302	33988	38164	34092	
1025	0	21650	33970	38152	34096	
1026	0	22504	34076	38154	34116	
1027	0	24836	34078	38156	34126	
1028	0	27292	34158	38162	34138	
1029	0	29560	34188	38210	34133	
1030	0	31318	34256	38202	34130	
1031	0	32354	34386	38235	34118	
1032	0	33000	34412	38232	34124	
1033	0	34572	34272	38248	34129	
1034	0	36110	34248	38248	34145	
1035	0	36646	34354	38287	34142	
1036	0	36500	34450	38292	34136	
1037	0	36352	34404	38316	34126	
1038	0	35684	34368	38318	34140	
1039	0	35136	34284	38328	34123	
1040	0	34964	34215	38320	34132	
1041	0	34598	34072	38323	34128	
1042	0	34322	34202	38356	34133	
1043	0	34048	34166	38347	34127	
1044	0	33812	34034	38376	34117	
1045	0	33248	34042	38368	34080	
1046	0	33244	34030	38388	34088	
1047	0	32970	34116	38392	34046	
1048	0	33372	34026	38424	34034	
1049	0	33276	33904	38432	34038	
1050	0	32536	33960	38434	34036	
1051	0	34044	34154	38444	34044	
1052	0	37640	34056	38447	34024	
1053	0	36204	34094	38440	34024	
1054	0	33050	34036	38448	34015	
1055	0	29696	33866	38464	34020	
1056	0	28327	33830	38468	34014	
1057	0	27170	33824	38472	34026	
1058	0	26844	33896	38456	34032	
1059	0	27264	33844	38456	34068	
1060	0	28752	34066	38480	34072	
1061	0	30620	34094	38474	34062	
1062	0	31512	33984	38506	34086	
1063	0	32320	34114	38514	34103	
1064	0	33574	34022	38506	34106	
1065	0	35334	34218	38540	34112	
1066	0	38968	34306	38552	34122	
1067	0	40716	34208	38564	34126	
1068	0	37706	34224	38548	34128	
1069	0	33768	34212	38548	34128	
1070	0	31768	34106	38590	34152	
1071	0	31202	34088	38572	34128	
1072	0	30512	34042	38540	34140	
1073	0	29398	34052	38540	34146	
1074	0	28844	34148	38532	34170	
1075	0	29586	34026	38516	34154	
1076	0	30586	34050	38528	34153	
1077	0	31428	34180	38512	34132	
1078	0	32282	34248	38480	34168	
1079	0	33262	34228	38491	34151	
1080	0	34231	34372	38504	34144	
1081	0	35644	34388	38470	34126	
1082	0	36090	34457	38489	34130	
1083	0	35858	34394	38478	34128	
1084	0	35466	34418	38468	34120	
1085	0	34872	34364	38458	34112	
1086	0	33888	34248	38450	34135	
1087	0	32801	34452	38417	34117	
1088	0	32212	34364	38436	34112	
1089	0	32698	34421	38400	34120	
1090	0	34152	34284	38400	34111	
1091	0	33792	34482	38402	34116	
1092	0	32400	34338	38387	34140	
1093	0	31950	34308	38400	34102	
1094	0	32100	34290	38374	34136	
1095	0	34728	34356	38362	34132	
1096	0	39884	34656	38348	34116	
1097	0	39205	34514	38344	34112	
1098	0	33470	34160	38354	34070	
1099	0	28743	34287	38336	34070	
1100	0	25716	34188	38362	34050	
1101	0	24652	34204	38352	34024	
1102	0	24918	34064	38343	33998	
1103	0	25988	34139	38302	34018	
1104	0	27116	34191	38322	34010	
1105	0	28860	34340	38306	34006	
1106	0	31778	34252	38336	33998	
1107	0	36044	34716	38350	34008	
1108	0	37866	34630	38384	34036	
1109	0	36812	34638	38392	34048	
1110	0	34786	34628	38410	34040	
1111	0	33448	34406	38434	34092	
1112	0	33883	34437	38454	34096	
1113	0	34624	34502	38434	34124	
1114	0	35646	34432	38456	34160	
1115	0	33664	34416	38430	34194	
1116	0	32258	34396	38456	34208	
1117	0	31216	34528	38466	34234	
1118	0	30588	34500	38454	34286	
1119	0	30900	34414	38454	34272	
1120	0	31620	34408	38454	34268	
1121	0	32630	34528	38466	34244	
1122	0	33476	34424	38449	34242	
1123	0	34894	34536	38442	34224	
1124	0	36408	34516	38415	34224	
1125	0	38208	34666	38436	34204	
1126	0	37692	34612	38414	34184	
1127	0	35758	34464	38436	34160	
1128	0	35550	34524	38416	34154	
1129	0	35048	34458	38427	34136	
1130	0	32744	34428	38402	34128	
1131	0	32920	34352	38372	34144	
1132	0	30790	34294	38380	34136	
1133	0	27578	34188	38396	34134	
1134	0	25990	34280	38400	34100	
1135	0	26232	34376	38400	34120	
1136	0	27520	34268	38417	34110	
1137	0	29284	34304	38410	34112	
1138	0	30833	34344	38422	34092	
1139	0	32276	34428	38424	34080	
1140	0	34024	34438	38416	34100	
1141	0	35224	34408	38416	34090	
1142	0	35538	34412	38444	34104	
1143	0	37224	34456	38480	34108	
1144	0	39632	34528	38478	34102	
1145	0	37920	34504	38491	34102	
1146	0	34908	34306	38490	34102	
1147	0	31984	34295	38520	34108	
1148	0	31944	34324	38528	34114	
1149	0	30700	34290	38510	34126	
1150	0	29243	34182	38522	34120	
1151	0	28994	34150	38532	34104	
1152	0	29408	34188	38544	34100	
1153	0	30092	34124	38532	34089	
1154	0	30528	34202	38543	34112	
1155	0	31252	34200	38560	34106	
1156	0	32578	34140	38570	34093	
1157	0	33540	34208	38563	34106	
1158	0	34242	34144	38574	34092	
1159	0	34506	34299	38561	34084	
1160	0	34720	34364	38590	34075	
1161	0	34936	34356	38574	34064	
1162	0	34959	34240	38552	34080	
1163	0	34136	34280	38559	34086	
1164	0	33624	34180	38530	34112	
1165	0	33392	34171	38530	34145	
1166	0	33118	34192	38548	34150	
1167	0	32860	34088	38534	34154	
1168	0	32768	34284	38570	34191	
1169	0	33946	34200	38584	34191	
1170	0	36600	34300	38560	34213	
1171	0	37010	34382	38592	34244	
1172	0	35084	34188	38594	34270	
1173	0	33869	34310	38590	34272	
1174	0	31924	34352	38596	34272	
1175	0	30061	34274	38588	34266	
1176	0	30058	34312	38612	34248	
1177	0	35896	34568	38616	34240	
1178	0	35824	34383	38626	34206	
1179	0	30513	34220	38638	34166	
1180	0	26212	34428	38631	34107	
1181	0	23660	34486	38616	34076	
1182	0	23744	34280	38626	34014	
1183	0	25215	34512	38608	33958	
1184	0	28281	34590	38586	33912	
1185	0	31754	34704	38565	33872	
1186	0	34352	34810	38569	33848	
1187	0	35270	34704	38546	33804	
1188	0	35050	34790	38532	33790	
1189	0	35444	34740	38520	33795	
1190	0	35455	34841	38494	33792	
1191	0	35316	34748	38494	33776	
1192	0	35596	34712	38458	33760	
1193	0	35086	34760	38432	33804	
1194	0	34424	34872	38426	33792	
1195	0	34434	34712	38392	33846	
1196	0	34232	34744	38400	33850	
1197	0	33790	34714	38380	33908	
1198	0	33048	34750	38332	33934	
1199	0	32512	34796	38354	33962	
1200	0	32494	34598	38338	33968	
1201	0	32706	34760	38330	33984	
1202	0	33124	34800	38342	33986	
1203	0	34580	34758	38292	33990	
1204	0	36106	34882	38288	33973	
1205	0	38412	34896	38272	33976	
1206	0	37648	34828	38252	33965	
1207	0	36534	34844	38220	33930	
1208	0	35500	34742	38210	33898	
1209	0	34850	34735	38199	33874	
1210	0	31993	34684	38164	33834	
1211	0	28816	34592	38170	33816	
1212	0	26676	34513	38154	33792	
1213	0	26108	34503	38144	33786	
1214	0	26096	34376	38134	33772	
1215	0	26180	34492	38114	33794	
1216	0	26973	34468	38126	33792	
1217	0	28724	34648	38144	33806	
1218	0	31056	34464	38132	33846	
1219	0	32918	34560	38154	33892	
1220	0	33778	34502	38142	33936	
1221	0	34628	34592	38122	34001	
1222	0	35100	34518	38166	34039	
1223	0	35285	34622	38176	34080	
1224	0	35548	34584	38188	34126	
1225	0	35530	34600	38206	34160	
1226	0	35616	34604	38244	34178	
1227	0	34010	34640	38242	34182	
1228	0	32684	34594	38246	34179	
1229	0	31736	34606	38287	34181	
1230	0	31770	34564	38304	34168	
1231	0	32476	34538	38293	34152	
1232	0	33330	34598	38300	34114	
1233	0	34026	34512	38300	34102	
1234	0	34888	34624	38318	34072	
1235	0	37080	34740	38316	34031	
1236	0	37652	34616	38324	33976	
1237	0	35478	34572	38292	33963	
1238	0	33260	34438	38272	33932	
1239	0	32319	34384	38284	33912	
1240	0	32658	34426	38294	33894	
1241	0	31344	34322	38296	33884	
1242	0	30060	34254	38284	33890	
1243	0	30164	34330	38306	33896	
1244	0	29818	34360	38310	33922	
1245	0	28792	34394	38302	33950	
1246	0	27410	34220	38319	33991	
1247	0	27444	34200	38350	33994	
1248	0	29234	34182	38344	34032	
1249	0	30994	34282	38386	34073	
1250	0	32535	34280	38400	34078	
1251	0	34267	34352	38420	34110	
1252	0	35986	34478	38432	34132	
1253	0	38776	34476	38424	34126	
1254	0	39588	34587	38452	34143	
1255	0	37316	34458	38444	34148	
1256	0	34472	34394	38432	34132	
1257	0	32532	34371	38452	34108	
1258	0	31399	34273	38452	34078	
1259	0	31208	34212	38456	34036	
1260	0	30816	34216	38436	33976	
1261	0	30256	34299	38404	33914	
1262	0	30822	34179	38402	33862	
1263	0	31966	34304	38390	33854	
1264	0	34098	34264	38390	33816	
1265	0	35644	34216	38352	33810	
1266	0	35616	34320	38384	33812	
1267	0	37368	34405	38362	33812	
1268	0	36664	34328	38366	33855	
1269	0	33524	34218	38368	33872	
1270	0	30730	34160	38374	33935	
1271	0	29122	34194	38368	34004	
1272	0	28432	34172	38400	34048	
1273	0	28807	34144	38392	34124	
1274	0	29384	34326	38440	34137	
1275	0	30503	34304	38448	34196	
1276	0	31892	34404	38480	34252	
1277	0	32332	34484	38490	34280	
1278	0	33040	34429	38520	34316	
1279	0	38260	34464	38542	34320	
1280	0	39159	34654	38536	34369	
1281	0	36176	34688	38536	34380	
1282	0	32580	34532	38530	34378	
1283	0	30048	34388	38540	34370	
1284	0	28616	34380	38536	34332	
1285	0	28698	34432	38538	34312	
1286	0	29277	34332	38516	34308	
1287	0	30052	34412	38504	34270	
1288	0	31474	34316	38508	34226	
1289	0	32170	34422	38486	34210	
1290	0	32586	34420	38476	34196	
1291	0	33512	34336	38452	34186	
1292	0	35032	34488	38456	34188	
1293	0	35518	34492	38434	34172	
1294	0	35504	34474	38420	34184	
1295	0	35162	34490	38400	34175	
1296	0	34840	34330	38376	34196	
1297	0	34416	34324	38408	34180	
1298	0	33722	34306	38402	34190	
1299	0	32992	34346	38384	34222	
1300	0	32596	34228	38386	34250	
1301	0	32898	34370	38376	34268	
1302	0	33595	34381	38390	34291	
1303	0	35226	34262	38386	34321	
1304	0	36472	34390	38400	34288	
1305	0	35208	34312	38404	34254	
1306	0	32872	34238	38412	34230	
1307	0	31060	34268	38400	34208	
1308	0	29644	34300	38406	34162	
1309	0	29066	34178	38415	34107	
1310	0	29016	34248	38400	34065	
1311	0	29456	34340	38400	34014	
1312	0	30439	34420	38416	33964	
1313	0	31082	34304	38410	33900	
1314	0	31400	34494	38422	33863	
1315	0	31820	34482	38400	33808	
1316	0	33246	34520	38396	33806	
1317	0	38110	34666	38392	33758	
1318	0	40362	34682	38370	33716	
1319	0	38472	34762	38386	33704	
1320	0	34060	34597	38354	33661	
1321	0	30562	34396	38354	33652	
1322	0	28924	34396	38352	33640	
1323	0	28494	34460	38363	33652	
1324	0	28980	34552	38352	33648	
1325	0	29977	34546	38322	33664	
1326	0	31076	34592	38332	33676	
1327	0	31482	34496	38340	33700	
1328	0	31956	34426	38340	33732	
1329	0	33160	34586	38370	33760	
1330	0	35112	34600	38360	33796	
1331	0	37606	34798	38336	33838	
1332	0	37842	34664	38364	33866	
1333	0	35314	34460	38370	33900	
1334	0	32192	34588	38376	33944	
1335	0	30968	34432	38388	33970	
1336	0	30668	34422	38400	33960	
1337	0	31021	34546	38402	33956	
1338	0	33430	34530	38392	33988	
1339	0	33400	34510	38400	33974	
1340	0	35707	34593	38388	34006	
1341	0	35642	34694	38394	34017	
1342	0	32464	34562	38416	33966	
1343	0	30646	34556	38401	33970	
1344	0	30072	34514	38394	33962	
1345	0	30662	34514	38404	33948	
1346	0	30676	34434	38400	33924	
1347	0	30764	34522	38400	33913	
1348	0	31256	34608	38380	33926	
1349	0	31884	34655	38352	33920	
1350	0	32360	34594	38368	33924	
1351	0	31720	34698	38374	33924	
1352	0	31912	34720	38376	33946	
1353	0	33040	34704	38365	33932	
1354	0	33938	34819	38402	33920	
1355	0	34484	34718	38396	33968	
1356	0	35728	34670	38356	33992	
1357	0	37026	34856	38384	34020	
1358	0	36259	34748	38400	34008	
1359	0	34370	34646	38378	34060	
1360	0	33136	34593	38384	34076	
1361	0	32234	34624	38400	34068	
1362	0	31368	34498	38405	34094	
1363	0	31356	34550	38442	34118	
1364	0	33528	34586	38446	34152	
1365	0	35306	34508	38447	34128	
1366	0	34364	34336	38450	34132	
1367	0	32747	34512	38470	34114	
1368	0	31798	34464	38466	34100	
1369	0	31389	34298	38472	34092	
1370	0	31024	34240	38488	34066	
1371	0	30408	34261	38476	34036	
1372	0	31942	34298	38480	34020	
1373	0	32744	34400	38501	33986	
1374	0	32092	34296	38496	33954	
1375	0	31388	34309	38508	33957	
1376	0	33426	34458	38534	33952	
1377	0	33908	34492	38556	33936	
1378	0	33369	34208	38548	33948	
1379	0	34144	34416	38554	33952	
1380	0	37485	34441	38542	33968	
1381	0	37286	34444	38544	33988	
1382	0	34946	34546	38554	34016	
1383	0	31202	34400	38548	34024	
1384	0	28440	34263	38544	34038	
1385	0	27046	34428	38578	34054	
1386	0	26342	34320	38556	34080	
1387	0	26898	34330	38568	34100	
1388	0	28076	34406	38592	34132	
1389	0	29780	34536	38580	34148	
1390	0	31768	34508	38584	34158	
1391	0	33216	34522	38588	34184	
1392	0	35190	34596	38612	34200	
1393	0	35592	34526	38598	34202	
1394	0	36418	34575	38580	34224	
1395	0	38504	34688	38576	34210	
1396	0	38836	34628	38574	34226	
1397	0	38000	34690	38568	34228	
1398	0	35560	34502	38564	34236	
1399	0	35182	34450	38552	34230	
1400	0	33148	34248	38568	34240	
1401	0	30778	34318	38538	34246	
1402	0	29178	34200	38543	34266	
1403	0	28424	34346	38528	34236	
1404	0	28498	34259	38523	34260	
1405	0	29412	34420	38512	34246	
1406	0	32140	34300	38480	34266	
1407	0	36557	34524	38498	34259	
1408	0	41886	34584	38472	34250	
1409	0	40784	34348	38460	34256	
1410	0	34576	34502	38452	34232	
1411	0	29765	34359	38478	34236	
1412	0	28648	34246	38452	34220	
1413	0	27226	34184	38460	34216	
1414	0	26142	34448	38453	34224	
1415	0	25344	34428	38468	34208	
1416	0	26894	34386	38448	34220	
1417	0	29176	34388	38448	34222	
1418	0	32464	34556	38458	34216	
1419	0	34602	34774	38472	34196	
1420	0	36456	34808	38488	34194	
1421	0	38026	34736	38468	34178	
1422	0	37902	34908	38498	34154	
1423	0	36672	34770	38476	34157	
1424	0	35450	34840	38456	34126	
1425	0	35186	34822	38460	34102	
1426	0	36040	34776	38458	34108	
1427	0	34224	34596	38472	34098	
1428	0	30916	34540	38440	34064	
1429	0	29496	34476	38442	34054	
1430	0	28366	34422	38452	34026	
1431	0	28440	34551	38456	34016	
1432	0	30304	34556	38420	34024	
1433	0	35200	34520	38431	34032	
1434	0	35442	34532	38424	34048	
1435	0	33588	34476	38434	34039	
1436	0	32192	34422	38410	34054	
1437	0	31362	34516	38416	34068	
1438	0	31920	34454	38404	34104	
1439	0	32658	34420	38425	34102	
1440	0	32394	34496	38432	34132	
1441	0	34458	34478	38446	34150	
1442	0	42754	34450	38454	34144	
1443	0	42138	34372	38466	34124	
1444	0	35830	34476	38478	34136	
1445	0	33494	34420	38491	34118	
1446	0	30858	34400	38490	34112	
1447	0	27544	34208	38484	34116	
1448	0	25434	34254	38540	34073	
1449	0	24040	34266	38523	34031	
1450	0	24390	34196	38540	34012	
1451	0	25728	34372	38568	33988	
1452	0	28380	34375	38548	33985	
1453	0	30042	34562	38562	33941	
1454	0	31898	34544	38584	33914	
1455	0	33638	34639	38566	33910	
1456	0	35248	34631	38570	33904	
1457	0	36210	34812	38584	33880	
1458	0	36952	34782	38546	33888	
1459	0	36974	34794	38538	33884	
1460	0	36644	34702	38544	33898	
1461	0	36992	34766	38544	33920	
1462	0	37524	34771	38528	33934	
1463	0	39784	34940	38532	33962	
1464	0	38708	34650	38504	33984	
1465	0	37076	34728	38504	34010	
1466	0	34276	34712	38494	34058	
1467	0	29942	34495	38504	34086	
1468	0	26831	34392	38482	34122	
1469	0	26632	34382	38492	34144	
1470	0	26684	34440	38482	34170	
1471	0	28604	34440	38482	34206	
1472	0	35148	34506	38520	34188	
1473	0	34268	34444	38522	34208	
1474	0	32476	34456	38540	34206	
1475	0	30031	34532	38560	34216	
1476	0	29784	34464	38580	34208	
1477	0	30376	34610	38602	34192	
1478	0	32386	34820	38592	34170	
1479	0	35498	34830	38624	34176	
1480	0	38329	34876	38624	34168	
1481	0	38936	35084	38636	34154	
1482	0	33768	34832	38644	34147	
1483	0	31190	34882	38640	34106	
1484	0	28678	34804	38650	34084	
1485	0	28781	34858	38668	34066	
1486	0	31607	34856	38673	34061	
1487	0	33524	34858	38688	34042	
1488	0	33936	34767	38698	34038	
1489	0	33114	34858	38714	34034	
1490	0	35348	34722	38708	34057	
1491	0	35060	34616	38718	34090	
1492	0	34602	34751	38724	34126	
1493	0	31616	34625	38738	34159	
1494	0	29194	34540	38738	34232	
1495	0	28352	34574	38732	34268	
1496	0	27490	34592	38778	34328	
1497	0	27581	34508	38780	34378	
1498	0	29666	34634	38766	34420	
1499	0	32772	34606	38802	34446	
1500	0	34248	34816	38832	34478	
1501	0	35904	34720	38824	34502	
1502	0	35760	34684	38810	34510	
1503	0	35688	34626	38839	34490	
1504	0	35349	34740	38842	34467	
1505	0	35438	34576	38860	34422	
1506	0	35404	34660	38826	34384	
1507	0	36153	34516	38816	34340	
1508	0	36230	34648	38794	34277	
1509	0	37046	34636	38770	34220	
1510	0	36178	34682	38762	34154	
1511	0	34810	34631	38722	34100	
1512	0	33680	34606	38690	34072	
1513	0	32266	34588	38680	34016	
1514	0	32996	34620	38646	33976	
1515	0	35298	34518	38624	33956	
1516	0	31858	34544	38626	33964	
1517	0	28882	34596	38582	33978	
1518	0	26904	34529	38564	33990	
1519	0	26560	34660	38577	33986	
1520	0	24406	34484	38540	34017	
1521	0	23108	34516	38542	34052	
1522	0	23550	34468	38536	34070	
1523	0	26460	34566	38525	34094	
1524	0	29976	34614	38516	34100	
1525	0	37026	34892	38522	34119	
1526	0	40482	35100	38528	34130	
1527	0	40423	35170	38502	34142	
1528	0	39064	35168	38520	34142	
1529	0	35464	35040	38520	34120	
1530	0	34232	35064	38520	34064	
1531	0	38420	35352	38520	34036	
1532	0	38938	35318	38510	33990	
1533	0	37066	35208	38496	33968	
1534	0	36952	35360	38496	33935	
1535	0	35858	35282	38480	33902	
1536	0	30206	35144	38506	33864	
1537	0	25330	35044	38497	33888	
1538	0	22448	35240	38476	33881	
1539	0	25212	35064	38492	33894	
1540	0	32608	35274	38482	33922	
1541	0	36194	35440	38528	33976	
1542	0	34460	35252	38530	34032	
1543	0	36460	35420	38508	34112	
1544	0	35416	35248	38496	34208	
1545	0	32476	35146	38526	34268	
1546	0	28264	35085	38510	34350	
1547	0	26480	35030	38546	34406	
1548	0	26054	35054	38540	34476	
1549	0	28370	35030	38556	34508	
1550	0	31202	35052	38568	34542	
1551	0	33906	35130	38550	34564	
1552	0	35410	35262	38578	34580	
1553	0	35082	35120	38570	34592	
1554	0	35170	35236	38594	34570	
1555	0	35760	35140	38598	34558	
1556	0	36102	35160	38608	34550	
1557	0	43572	35240	38646	34524	
1558	0	47750	35056	38650	34479	
1559	0	44282	35086	38626	34456	
1560	0	39004	35046	38650	34408	
1561	0	36420	34858	38660	34375	
1562	0	30074	34704	38674	34346	
1563	0	27183	34575	38666	34312	
1564	0	24520	34632	38691	34266	
1565	0	22794	34554	38714	34232	
1566	0	23388	34476	38712	34220	
1567	0	22365	34512	38734	34196	
1568	0	20180	34556	38734	34192	
1569	0	21230	34376	38768	34208	
1570	0	23736	34394	38784	34172	
1571	0	29130	34538	38788	34162	
1572	0	33718	34610	38787	34148	
1573	0	37377	34824	38814	34142	
1574	0	41176	34892	38807	34124	
1575	0	41956	35040	38826	34115	
1576	0	40916	34768	38823	34072	
1577	0	43800	34730	38784	34052	
1578	0	47226	34656	38804	34014	
1579	0	41540	34928	38766	33969	
1580	0	32016	34562	38762	33920	
1581	0	25012	34388	38728	33880	
1582	0	21833	34516	38728	33834	
1583	0	21904	34602	38714	33816	
1584	0	24002	34530	38720	33800	
1585	0	27977	34730	38683	33804	
1586	0	33514	34910	38686	33860	
1587	0	34724	35014	38673	33900	
1588	0	34698	35112	38690	33969	
1589	0	36854	35236	38700	34048	
1590	0	38702	35408	38720	34153	
1591	0	38808	35246	38744	34264	
1592	0	37256	35342	38762	34362	
1593	0	35120	35304	38786	34456	
1594	0	33756	35342	38778	34540	
1595	0	33290	35286	38812	34629	
1596	0	33408	35408	38834	34666	
1597	0	34201	35376	38842	34695	
1598	0	34378	35404	38862	34724	
1599	0	33890	35535	38836	34702	
1600	0	36632	35600	38858	34676	
1601	0	38256	35676	38815	34644	
1602	0	34684	35576	38822	34562	
1603	0	30602	35512	38756	34488	
1604	0	26502	35578	38728	34390	
1605	0	25462	35622	38694	34310	
1606	0	26896	35614	38674	34220	
1607	0	30154	35689	38656	34144	
1608	0	30222	35792	38620	34070	
1609	0	29942	35654	38604	34016	
1610	0	30724	35786	38568	33980	
1611	0	32616	35810	38558	33966	
1612	0	31287	35850	38536	33950	
1613	0	29855	35830	38492	33973	
1614	0	29628	35732	38506	33998	
1615	0	31084	35816	38472	34018	
1616	0	31570	35822	38490	34044	
1617	0	31880	35680	38482	34048	
1618	0	32112	35802	38494	34097	
1619	0	35036	35858	38524	34144	
1620	0	38550	35848	38518	34181	
1621	0	38613	35802	38524	34216	
1622	0	36748	35758	38528	34252	
1623	0	34415	35655	38548	34300	
1624	0	33340	35688	38553	34348	
1625	0	33812	35646	38545	34426	
1626	0	41720	35861	38540	34456	
1627	0	41576	35905	38567	34504	
1628	0	34988	35728	38548	34564	
1629	0	30118	35700	38566	34578	
1630	0	28970	35554	38588	34606	
1631	0	29056	35564	38552	34616	
1632	0	30839	35624	38592	34608	
1633	0	29234	35494	38580	34594	
1634	0	28358	35638	38568	34572	
1635	0	31266	35560	38560	34560	
1636	0	33190	35474	38560	34528	
1637	0	30794	35524	38560	34476	
1638	0	29954	35520	38560	34420	
1639	0	29114	35446	38548	34396	
1640	0	29164	35308	38538	34343	
1641	0	29076	35436	38529	34324	
1642	0	33012	35442	38530	34312	
1643	0	36756	35568	38504	34292	
1644	0	35572	35420	38494	34312	
1645	0	32550	35444	38499	34320	
1646	0	32154	35416	38501	34328	
1647	0	36304	35600	38519	34346	
1648	0	38176	35484	38540	34372	
1649	0	36422	35510	38566	34396	
1650	0	33256	35290	38556	34416	
1651	0	30259	35182	38548	34428	
1652	0	30161	35394	38584	34444	
1653	0	33950	35654	38632	34464	
1654	0	34452	35466	38612	34508	
1655	0	32390	35257	38540	34532	
1656	0	30952	35480	38558	34494	
1657	0	28608	35568	38628	34464	
1658	0	26728	35660	38684	34383	
1659	0	29367	35464	38674	34362	
1660	0	32388	35500	38664	34346	
1661	0	34810	35562	38659	34352	
1662	0	35001	35642	38640	34354	
1663	0	34340	35686	38682	34384	
1664	0	33658	35551	38678	34422	
1665	0	34294	35540	38650	34464	
1666	0	34626	35588	38616	34482	
1667	0	39260	35848	38584	34506	
1668	0	40311	35952	38598	34474	
1669	0	35664	35732	38600	34466	
1670	0	32788	35675	38614	34412	
1671	0	32352	35664	38632	34352	
1672	0	29522	35744	38624	34306	
1673	0	27702	35766	38596	34258	
1674	0	27508	35851	38580	34240	
1675	0	29464	35948	38596	34222	
1676	0	30692	35884	38564	34230	
1677	0	32190	35886	38564	34234	
1678	0	34100	35879	38532	34266	
1679	0	38296	35972	38528	34296	
1680	0	43978	36092	38508	34340	
1681	0	41984	36268	38508	34344	
1682	0	35936	35926	38544	34330	
1683	0	29672	35766	38568	34310	
1684	0	25738	35842	38550	34292	
1685	0	26037	35720	38532	34248	
1686	0	26572	35844	38560	34250	
1687	0	27194	35930	38528	34298	
1688	0	33632	35968	38542	34332	
1689	0	35174	35938	38546	34370	
1690	0	30222	35973	38538	34400	
1691	0	25933	35906	38554	34406	
1692	0	25187	35922	38594	34402	
1693	0	26992	35958	38581	34424	
1694	0	30842	36096	38590	34404	
1695	0	34842	36100	38596	34416	
1696	0	37084	36256	38596	34398	
1697	0	37936	36306	38572	34408	
1698	0	38988	36278	38556	34440	
1699	0	38190	36257	38540	34440	
1700	0	39324	36246	38524	34444	
1701	0	47239	36384	38516	34452	
1702	0	49894	36320	38498	34436	
1703	0	44192	36652	38504	34402	
1704	0	37384	36334	38466	34368	
1705	0	27476	36139	38432	34352	
1706	0	18962	36124	38404	34314	
1707	0	15032	36350	38407	34294	
1708	0	14808	36352	38400	34268	
1709	0	19042	36308	38408	34274	
1710	0	23097	36370	38400	34272	
1711	0	26694	36428	38388	34292	
1712	0	30468	36474	38376	34312	
1713	0	32978	36439	38391	34324	
1714	0	34850	36608	38400	34324	
1715	0	37701	36660	38392	34372	
1716	0	42448	36744	38400	34380	
1717	0	45730	36754	38400	34418	
1718	0	43852	36842	38418	34450	
1719	0	39758	36630	38392	34459	
1720	0	35330	36346	38364	34484	
1721	0	32760	36300	38402	34494	
1722	0	32832	36136	38416	34502	
1723	0	35432	36176	38431	34512	
1724	0	36400	36356	38410	34552	
1725	0	30666	36112	38412	34562	
1726	0	25812	36261	38402	34592	
1727	0	23099	36189	38407	34620	
1728	0	21947	36218	38420	34620	
1729	0	24492	36354	38434	34632	
1730	0	28026	36398	38432	34664	
1731	0	31596	36432	38462	34672	
1732	0	33007	36457	38472	34688	
1733	0	35908	36568	38444	34692	
1734	0	37632	36650	38468	34706	
1735	0	39180	36652	38458	34714	
1736	0	41704	36910	38466	34728	
1737	0	40032	36714	38480	34746	
1738	0	37128	36570	38440	34729	
1739	0	35209	36542	38480	34714	
1740	0	38682	36586	38490	34704	
1741	0	45440	36728	38472	34680	
1742	0	39134	36584	38482	34656	
1743	0	30304	36270	38468	34644	
1744	0	23468	36194	38463	34627	
1745	0	21148	36098	38448	34584	
1746	0	20372	36052	38472	34576	
1747	0	21723	36120	38476	34590	
1748	0	25670	36156	38444	34568	
1749	0	31162	36242	38447	34604	
1750	0	33466	36154	38460	34604	
1751	0	31940	36214	38444	34620	
1752	0	30490	36366	38452	34636	
1753	0	32522	36334	38450	34662	
1754	0	31951	36276	38439	34688	
1755	0	30640	36269	38424	34724	
1756	0	30608	36372	38412	34778	
1757	0	31424	36410	38422	34794	
1758	0	32840	36364	38400	34816	
1759	0	35616	36650	38376	34854	
1760	0	39346	36784	38371	34868	
1761	0	41100	36961	38360	34872	
1762	0	46560	37208	38350	34856	
1763	0	51844	36871	38344	34852	
1764	0	44608	37125	38342	34844	
1765	0	36678	36716	38304	34796	
1766	0	27995	36788	38316	34742	
1767	0	22416	36874	38320	34678	
1768	0	20079	36722	38270	34616	
1769	0	21129	36705	38228	34544	
1770	0	27073	36752	38243	34498	
1771	0	39728	36893	38196	34444	
1772	0	50394	36954	38220	34402	
1773	0	41800	36984	38172	34402	
1774	0	35532	36608	38168	34388	
1775	0	27544	36556	38168	34404	
1776	0	18152	36664	38178	34446	
1777	0	15190	36570	38188	34506	
1778	0	17764	36632	38192	34566	
1779	0	21528	36758	38192	34650	
1780	0	24596	36562	38196	34744	
1781	0	27906	36644	38224	34831	
1782	0	30357	36608	38266	34928	
1783	0	32960	36864	38296	34986	
1784	0	36260	36768	38319	35062	
1785	0	38662	37092	38348	35114	
1786	0	40065	36900	38376	35140	
1787	0	41984	36994	38380	35140	
1788	0	44394	37032	38400	35154	
1789	0	42936	36908	38400	35080	
1790	0	42112	36842	38370	35015	
1791	0	41520	36830	38334	34924	
1792	0	41004	36804	38304	34820	
1793	0	37610	36574	38283	34702	
1794	0	29957	36498	38256	34604	
1795	0	24148	36495	38208	34496	
1796	0	22270	36686	38200	34404	
1797	0	23234	36626	38159	34330	
1798	0	26728	36680	38130	34304	
1799	0	31760	36776	38110	34270	
1800	0	41800	37089	38117	34284	
1801	0	43428	37136	38080	34318	
1802	0	39021	36930	38096	34368	
1803	0	34024	36868	38082	34426	
1804	0	31654	36911	38100	34490	
1805	0	27377	36920	38104	34584	
1806	0	24686	36954	38113	34650	
1807	0	25126	36914	38130	34730	
1808	0	25672	36814	38122	34802	
1809	0	25976	36986	38144	34856	
1810	0	27720	36944	38150	34919	
1811	0	34386	36938	38154	34946	
1812	0	42777	37295	38151	34988	
1813	0	41968	37281	38144	35020	
1814	0	37466	37210	38122	35030	
1815	0	38504	37268	38104	35048	
1816	0	41664	37280	38113	35028	
1817	0	35360	37264	38108	35016	
1818	0	28888	37144	38088	35005	
1819	0	24628	37108	38092	34992	
1820	0	22071	37104	38112	34972	
1821	0	24559	37172	38065	34948	
1822	0	25482	37076	38080	34940	
1823	0	24910	37120	38072	34933	
1824	0	26554	37280	38060	34910	
1825	0	32689	37218	38050	34944	
1826	0	38100	37340	38040	34982	
1827	0	38474	37418	38024	34990	
1828	0	37076	37410	37996	34996	
1829	0	36586	37440	38014	35015	
1830	0	35738	37347	37976	35014	
1831	0	36398	37428	37972	34996	
1832	0	40450	37596	37938	34991	
1833	0	36872	37428	37920	34977	
1834	0	32280	37354	37880	34964	
1835	0	30184	37326	37858	34934	
1836	0	33484	37288	37832	34930	
1837	0	36758	37268	37794	34910	
1838	0	36558	37148	37768	34912	
1839	0	35500	37126	37760	34898	
1840	0	38996	37208	37728	34908	
1841	0	38094	37048	37730	34890	
1842	0	35062	37040	37710	34912	
1843	0	34534	36886	37700	34930	
1844	0	32788	36848	37706	34970	
1845	0	26254	36794	37708	34998	
1846	0	21840	36896	37752	35036	
1847	0	21172	36822	37776	35084	
1848	0	20815	36804	37784	35124	
1849	0	19640	36735	37808	35156	
1850	0	20638	36864	37876	35207	
1851	0	23424	36794	37876	35244	
1852	0	26602	36827	37898	35274	
1853	0	30324	36968	37940	35272	
1854	0	35302	37082	37920	35276	
1855	0	44408	37338	37952	35262	
1856	0	49936	37332	37940	35216	
1857	0	54405	37219	37944	35176	
1858	0	49216	37554	37934	35139	
1859	0	45108	37530	37914	35114	
1860	0	48556	37559	37895	35081	
1861	0	43278	37458	37872	35020	
1862	0	35256	37266	37828	34992	
1863	0	29688	37250	37804	34959	
1864	0	30864	37074	37782	34954	
1865	0	27124	37256	37748	34932	
1866	0	16346	37228	37718	34920	
1867	0	10497	37366	37674	34914	
1868	0	7583	37294	37646	34900	
1869	0	8912	37470	37640	34898	
1870	0	17276	37320	37592	34890	
1871	0	26402	37342	37580	34888	
1872	0	32818	37552	37559	34894	
1873	0	39166	37552	37568	34908	
1874	0	48544	37996	37548	34924	
1875	0	52076	37722	37559	34920	
1876	0	50580	37884	37546	34914	
1877	0	42580	37791	37540	34928	
1878	0	36180	37456	37536	34944	
1879	0	32196	37396	37524	34936	
1880	0	29364	37377	37508	34944	
1881	0	28610	37518	37490	34958	
1882	0	28773	37442	37492	34976	
1883	0	27788	37354	37482	34966	
1884	0	28348	37278	37472	34952	
1885	0	33442	37390	37468	34980	
1886	0	35104	37418	37446	35002	
1887	0	45552	37738	37458	35016	
1888	0	49914	37872	37456	35035	
1889	0	41891	37578	37442	35058	
1890	0	32228	37388	37448	35072	
1891	0	26425	37464	37432	35096	
1892	0	22510	37536	37424	35104	
1893	0	20966	37556	37416	35116	
1894	0	23959	37552	37416	35100	
1895	0	30734	37660	37416	35094	
1896	0	35911	37868	37400	35110	
1897	0	42856	37822	37376	35098	
1898	0	45194	38094	37368	35080	
1899	0	36842	37868	37340	35032	
1900	0	26386	37876	37308	35022	
1901	0	19187	37812	37298	34988	
1902	0	18062	37882	37284	34944	
1903	0	20914	37984	37264	34910	
1904	0	24719	38135	37232	34886	
1905	0	30572	38008	37216	34862	
1906	0	38180	37942	37180	34834	
1907	0	47130	38514	37190	34828	
1908	0	51000	38318	37156	34816	
1909	0	53888	38176	37129	34820	
1910	0	48226	38268	37071	34852	
1911	0	34966	37868	37055	34863	
1912	0	24256	37866	37048	34893	
1913	0	21484	37840	37048	34934	
1914	0	22756	37732	37019	34982	
1915	0	26998	37826	37024	35027	
1916	0	25322	37748	37044	35100	
1917	0	23746	37700	37044	35160	
1918	0	26040	37674	37084	35200	
1919	0	32474	37696	37077	35252	
1920	0	36384	37618	37130	35262	
1921	0	37260	37726	37128	35280	
1922	0	40555	37888	37153	35290	
1923	0	38288	37714	37178	35292	
1924	0	41590	37816	37200	35286	
1925	0	45268	38116	37208	35244	
1926	0	36136	37708	37193	35216	
1927	0	26927	37710	37162	35146	
1928	0	19017	37840	37159	35118	
1929	0	15186	37800	37130	35048	
1930	0	16549	37689	37092	34988	
1931	0	21498	37860	37048	34910	
1932	0	27806	37784	37004	34876	
1933	0	32264	37772	36982	34818	
1934	0	34506	37832	36930	34764	
1935	0	37470	37789	36907	34742	
1936	0	48135	38352	36874	34722	
1937	0	49508	38408	36848	34702	
1938	0	45838	38096	36852	34736	
1939	0	46592	38208	36832	34768	
1940	0	52652	38135	36850	34804	
1941	0	48556	38272	36868	34868	
1942	0	41874	37979	36852	34933	
1943	0	29226	37824	36876	34988	
1944	0	15673	37980	36910	35052	
1945	0	7168	38011	36920	35105	
1946	0	6829	38040	36927	35168	
1947	0	11675	38000	36916	35200	
1948	0	19190	38078	36944	35220	
1949	0	24880	38138	36950	35210	
1950	0	34048	38068	36952	35244	
1951	0	34234	38098	36948	35218	
1952	0	36082	38162	36888	35178	
1953	0	37201	38126	36854	35145	
1954	0	48408	38686	36864	35088	
1955	0	54366	38384	36808	35033	
1956	0	49236	38640	36760	34976	
1957	0	40966	38278	36708	34946	
1958	0	33736	37980	36642	34908	
1959	0	28132	38130	36636	34900	
1960	0	24242	38248	36584	34878	
1961	0	23680	38224	36554	34864	
1962	0	26148	38254	36532	34866	
1963	0	28740	38232	36522	34886	
1964	0	33186	38242	36520	34914	
1965	0	39016	38330	36510	34922	
1966	0	43504	38370	36498	34970	
1967	0	45510	38517	36516	34976	
1968	0	49472	38641	36534	34984	
1969	0	40510	38254	36504	34996	
1970	0	29338	38132	36504	34998	
1971	0	20138	38156	36503	34996	
1972	0	13322	38170	36526	35036	
1973	0	11210	38308	36516	35032	
1974	0	14958	38348	36508	35054	
1975	0	21933	38632	36546	35060	
1976	0	29144	38424	36512	35088	
1977	0	34176	38585	36516	35096	
1978	0	35312	38578	36484	35116	
1979	0	35798	38704	36470	35120	
1980	0	37590	38704	36492	35121	
1981	0	39240	38580	36442	35108	
1982	0	38046	38673	36426	35073	
1983	0	41438	38946	36406	35060	
1984	0	44160	39000	36356	35038	
1985	0	40792	38840	36296	34990	
1986	0	35684	38694	36272	34962	
1987	0	35827	38664	36210	34928	
1988	0	39336	38580	36168	34882	
1989	0	36346	38738	36160	34862	
1990	0	35008	38444	36132	34825	
1991	0	45636	38620	36120	34800	
1992	0	51584	38898	36052	34812	
1993	0	35652	38510	36088	34832	
1994	0	20047	38262	36002	34826	
1995	0	9974	38208	36028	34828	
1996	0	4193	38726	36073	34796	
1997	0	6593	38604	36194	34852	
1998	0	13778	38010	36206	34994	
1999	0	21639	37690	36111	35146	
2000	0	30112	37964	36120	35248	
2001	0	39576	38660	36128	35272	
2002	0	60512	39234	36210	35254	
2003	0	63740	39006	36291	35204	
2004	0	53536	38786	36296	35152	
2005	0	37264	38244	36268	35031	
2006	0	26150	38420	36220	34952	
2007	0	19743	38506	36154	34892	
2008	0	18224	38600	36136	34878	
2009	0	22463	38464	36146	34880	
2010	0	25248	38216	36092	34906	
2011	0	29024	38220	36052	34948	
2012	0	37780	38500	36026	35034	
2013	0	42818	38500	35992	35084	
2014	0	50039	38952	36018	35148	
2015	0	56704	38500	35996	35162	
2016	0	49242	38939	36006	35166	
2017	0	33960	38322	35986	35156	
2018	0	20556	38378	35954	35122	
2019	0	13126	38268	35948	35076	
2020	0	11526	38398	35950	35012	
2021	0	17412	38408	35952	34976	
2022	0	20404	38312	35924	34970	
2023	0	26138	38272	35919	34962	
2024	0	29906	38304	35928	34964	
2025	0	33699	38284	35906	34990	
2026	0	35620	38244	35902	35022	
2027	0	36324	38308	35872	35042	
2028	0	37712	38308	35869	35066	
2029	0	39948	38412	35880	35092	
2030	0	48852	39087	35876	35102	
2031	0	52234	38840	35864	35104	
2032	0	47214	39100	35880	35088	
2033	0	42082	38784	35854	35078	
2034	0	44240	39076	35857	35068	
2035	0	50852	39500	35844	35026	
2036	0	46054	39330	35796	34992	
2037	0	29809	38840	35752	34958	
2038	0	14558	38924	35735	34888	
2039	0	3208	38926	35712	34832	
2040	0	2048	38869	35622	34774	
2041	0	5678	38956	35594	34716	
2042	0	9984	38860	35528	34700	
2043	0	13510	38848	35462	34714	
2044	0	24187	39048	35436	34736	
2045	0	31641	38984	35396	34764	
2046	0	40522	39214	35380	34800	
2047	0	51321	39750	35368	34827	
2048	0	60794	39310	35340	34874	
2049	0	63378	39310	35332	34904	
2050	0	58928	39184	35328	34962	
2051	0	46330	39296	35336	35008	
2052	0	31626	38864	35340	35040	
2053	0	21616	38796	35316	35072	
2054	0	17427	38720	35314	35112	
2055	0	15836	38786	35335	35162	
2056	0	20418	38764	35372	35175	
2057	0	27488	38752	35360	35188	
2058	0	32928	38690	35360	35180	
2059	0	34576	38708	35380	35162	
2060	0	36938	38856	35383	35141	
2061	0	37550	38824	35376	35138	
2062	0	34580	38706	35368	35102	
2063	0	32360	38740	35328	35064	
2064	0	35022	38984	35319	35046	
2065	0	35192	38798	35292	34994	
2066	0	31706	38722	35302	34938	
2067	0	29105	38586	35312	34864	
2068	0	35764	38650	35278	34821	
2069	0	40342	38876	35242	34808	
2070	0	35518	38808	35168	34802	
2071	0	30588	38874	35146	34804	
2072	0	28324	38824	35120	34806	
2073	0	33348	38726	35116	34818	
2074	0	38446	38896	35130	34850	
2075	0	45008	39056	35084	34818	
2076	0	50968	39480	35100	34836	
2077	0	47762	39206	35088	34852	
2078	0	40184	38779	35070	34865	
2079	0	25266	38650	35066	34891	
2080	0	11681	38650	35066	34952	
2081	0	3957	38822	35090	34956	
2082	0	4819	38842	35092	34996	
2083	0	9200	38840	35102	35038	
2084	0	12864	38976	35102	35088	
2085	0	30649	38792	35116	35106	
2086	0	37144	38938	35088	35132	
2087	0	39770	38841	35089	35108	
2088	0	45400	39162	35064	35106	
2089	0	58344	39152	35016	35104	
2090	0	61568	38966	34963	35080	
2091	0	55064	38934	34912	35064	
2092	0	43566	38784	34880	35024	
2093	0	29544	38686	34841	35012	
2094	0	20136	38572	34852	34986	
2095	0	14623	38528	34808	34970	
2096	0	12393	38644	34808	34964	
2097	0	13698	38772	34822	34958	
2098	0	19570	38832	34825	34954	
2099	0	33094	38858	34828	34952	
2100	0	43014	39228	34848	34936	
2101	0	52562	39702	34849	34942	
2102	0	51127	39883	34884	34912	
2103	0	42644	39266	34856	34884	
2104	0	34068	39026	34836	34826	
2105	0	28050	39002	34815	34760	
2106	0	26272	39024	34770	34723	
2107	0	27472	38980	34716	34682	
2108	0	29852	39074	34688	34664	
2109	0	30807	38900	34651	34652	
2110	0	31453	39008	34612	34662	
2111	0	30414	38786	34580	34672	
2112	0	30668	38891	34560	34728	
2113	0	31642	38952	34498	34792	
2114	0	34270	38906	34482	34828	
2115	0	37872	38978	34476	34884	
2116	0	38256	39118	34464	34938	
2117	0	34856	39018	34479	34956	
2118	0	34136	39035	34432	34976	
2119	0	44448	39248	34428	35004	
2120	0	47112	39508	34446	34992	
2121	0	38322	39208	34448	34962	
2122	0	28578	39020	34418	34896	
2123	0	20132	39024	34422	34868	
2124	0	15310	39085	34418	34804	
2125	0	18568	38996	34400	34740	
2126	0	33476	39200	34402	34722	
2127	0	39317	39346	34393	34680	
2128	0	37050	39276	34368	34656	
2129	0	35875	39328	34344	34634	
2130	0	39322	39398	34272	34626	
2131	0	37556	39434	34208	34658	
2132	0	32968	39441	34146	34664	
2133	0	28012	39420	34112	34680	
2134	0	23936	39384	34058	34712	
2135	0	21368	39400	34006	34760	
2136	0	23270	39246	33972	34789	
2137	0	26100	39258	33960	34812	
2138	0	29894	39136	33962	34838	
2139	0	30682	38964	33954	34854	
2140	0	29762	38782	33988	34904	
2141	0	32568	38765	33990	34908	
2142	0	37384	38720	33986	34954	
2143	0	40920	38536	34016	34987	
2144	0	46746	38848	34040	35000	
2145	0	55292	38792	34020	35032	
2146	0	56330	38672	34066	35025	
2147	0	53796	38802	34101	35016	
2148	0	50796	39172	34114	34994	
2149	0	42484	38684	34176	34972	
2150	0	32076	38416	34222	34928	
2151	0	14787	38644	34260	34878	
2152	0	1049	38806	34274	34852	
2153	0	17	38770	34288	34816	
2154	0	4855	38934	34282	34800	
2155	0	9369	39022	34282	34782	
2156	0	13010	39200	34266	34798	
2157	0	24556	39200	34200	34826	
2158	0	34624	39220	34144	34856	
2159	0	41916	39464	34061	34886	
2160	0	45542	39503	34018	34924	
2161	0	45798	39676	33966	34942	
2162	0	45994	39577	33924	34926	
2163	0	44868	39326	33920	34908	
2164	0	42480	39252	33840	34884	
2165	0	39714	39044	33810	34820	
2166	0	37220	38882	33792	34752	
2167	0	39531	38880	33770	34660	
2168	0	51968	39648	33648	34613	
2169	0	52136	39576	33632	34552	
2170	0	40928	38844	33671	34524	
2171	0	34076	38762	33658	34490	
2172	0	28558	38738	33666	34512	
2173	0	20732	38784	33680	34516	
2174	0	14938	38810	33734	34514	
2175	0	13162	38976	33720	34544	
2176	0	14664	39190	33752	34542	
2177	0	17712	39112	33747	34580	
2178	0	20046	39032	33739	34596	
2179	0	28028	39090	33718	34618	
2180	0	34082	39130	33672	34630	
2181	0	37723	39232	33632	34652	
2182	0	36926	39134	33558	34683	
2183	0	38772	39118	33486	34686	
2184	0	41404	39024	33408	34734	
2185	0	47832	39488	33336	34764	
2186	0	47424	39365	33326	34754	
2187	0	41940	39025	33262	34770	
2188	0	34902	38848	33282	34772	
2189	0	30270	38896	33272	34758	
2190	0	29058	38816	33296	34736	
2191	0	27140	38910	33284	34733	
2192	0	26547	38938	33256	34688	
2193	0	29194	38764	33324	34656	
2194	0	34012	38972	33316	34634	
2195	0	33828	39026	33292	34618	
2196	0	36064	39072	33282	34576	
2197	0	42496	39244	33234	34556	
2198	0	42420	39310	33190	34536	
2199	0	34864	39176	33184	34540	
2200	0	27450	39106	33136	34564	
2201	0	21847	39040	33102	34582	
2202	0	16260	38984	33052	34620	
2203	0	14548	38955	33012	34652	
2204	0	18107	38912	32980	34668	
2205	0	23280	38954	32948	34724	
2206	0	29228	38844	32948	34774	
2207	0	34504	38904	32932	34782	
2208	0	40487	38832	32911	34804	
2209	0	42586	38956	32884	34808	
2210	0	40834	38768	32912	34816	
2211	0	40072	38828	32920	34818	
2212	0	39474	38662	32932	34800	
2213	0	36638	38560	32930	34772	
2214	0	35312	38560	32927	34752	
2215	0	35397	38542	32962	34704	
2216	0	35644	38588	32950	34650	
2217	0	34788	38688	32944	34616	
2218	0	36076	38658	32912	34592	
2219	0	37606	38663	32890	34528	
2220	0	37624	38668	32848	34504	
2221	0	35920	38624	32833	34430	
2222	0	42028	38789	32756	34400	
2223	0	43126	38712	32680	34338	
2224	0	38168	38612	32644	34308	
2225	0	31448	38556	32596	34319	
2226	0	25837	38549	32552	34298	
2227	0	20592	38447	32532	34322	
2228	0	23105	38432	32514	34360	
2229	0	39048	38476	32500	34364	
2230	0	48052	38956	32496	34392	
2231	0	37692	38596	32512	34402	
2232	0	29582	38456	32536	34416	
2233	0	18144	38452	32550	34432	
2234	0	7522	38470	32564	34427	
2235	0	5925	38686	32540	34464	
2236	0	9975	38634	32540	34500	
2237	0	13506	38864	32538	34528	
2238	0	27729	38886	32518	34580	
2239	0	36660	38922	32490	34622	
2240	0	41240	39140	32424	34690	
2241	0	43876	39244	32394	34754	
2242	0	44984	39436	32344	34816	
2243	0	45088	39280	32298	34834	
2244	0	44224	39156	32258	34824	
2245	0	41362	39000	32187	34816	
2246	0	38576	38876	32098	34796	
2247	0	37824	38812	32038	34756	
2248	0	42178	38804	31994	34700	
2249	0	47082	38912	31988	34656	
2250	0	50970	39024	31980	34600	
2251	0	48384	38890	31954	34546	
2252	0	43996	38452	31960	34460	
2253	0	28946	38336	31996	34400	
2254	0	14549	38268	32000	34356	
2255	0	4512	38408	32046	34316	
2256	0	2613	38496	32056	34308	
2257	0	6629	38552	32072	34304	
2258	0	16872	38826	32070	34328	
2259	0	27484	38854	32073	34345	
2260	0	33296	38951	32090	34403	
2261	0	36116	38960	32073	34464	
2262	0	40440	39046	32088	34503	
2263	0	42496	39109	32058	34592	
2264	0	41844	38900	32016	34644	
2265	0	39976	38810	32014	34688	
2266	0	39092	38678	31976	34728	
2267	0	38612	38488	31952	34754	
2268	0	36704	38396	31920	34748	
2269	0	34782	38360	31908	34738	
2270	0	36010	38250	31896	34678	
2271	0	39150	38306	31882	34638	
2272	0	40790	38340	31870	34560	
2273	0	35160	38256	31872	34476	
2274	0	29962	38192	31872	34394	
2275	0	24922	38217	31880	34298	
2276	0	21975	38234	31869	34230	
2277	0	21649	38341	31872	34168	
2278	0	25372	38353	31866	34144	
2279	0	32714	38362	31850	34122	
2280	0	37942	38710	31844	34108	
2281	0	42672	38810	31862	34076	
2282	0	47434	39230	31846	34104	
2283	0	46432	39074	31806	34126	
2284	0	43338	38912	31754	34164	
2285	0	38504	38882	31677	34196	
2286	0	33312	38640	31633	34236	
2287	0	28097	38400	31606	34256	
2288	0	25279	38396	31584	34258	
2289	0	24864	38208	31534	34304	
2290	0	24020	38146	31504	34304	
2291	0	21704	38040	31466	34306	
2292	0	22247	37920	31446	34284	
2293	0	26396	37920	31432	34296	
2294	0	34852	37998	31430	34294	
2295	0	45440	38196	31414	34308	
2296	0	44336	38095	31418	34304	
2297	0	32730	37878	31412	34344	
2298	0	26454	37950	31434	34343	
2299	0	29840	37900	31465	34336	
2300	0	27954	38008	31504	34350	
2301	0	23920	38266	31502	34380	
2302	0	26986	38480	31502	34408	
2303	0	30518	38562	31484	34448	
2304	0	29820	38488	31507	34480	
2305	0	29190	38596	31468	34524	
2306	0	27468	38588	31440	34560	
2307	0	29292	38580	31432	34548	
2308	0	33232	38532	31383	34564	
2309	0	37814	38672	31322	34536	
2310	0	40268	38746	31244	34560	
2311	0	41480	38572	31139	34530	
2312	0	45976	38800	31042	34526	
2313	0	50448	38836	31002	34489	
2314	0	55312	38444	30976	34492	
2315	0	53514	38380	30948	34446	
2316	0	50598	38192	30942	34385	
2317	0	32804	37912	30942	34356	
2318	0	12646	37786	30948	34320	
2319	0	28	37820	30976	34284	
2320	0	1075	37804	30978	34298	
2321	0	6201	38080	31030	34316	
2322	0	10471	38320	31048	34344	
2323	0	13904	38473	31076	34392	
2324	0	39208	38726	31096	34458	
2325	0	47648	39186	31104	34494	
2326	0	47800	39382	31076	34512	
2327	0	45328	38902	31052	34504	
2328	0	43232	38685	31002	34488	
2329	0	41574	38791	30932	34476	
2330	0	39620	38428	30890	34458	
2331	0	38554	38232	30808	34412	
2332	0	37789	38023	30760	34390	
2333	0	36326	37760	30678	34348	
2334	0	34112	37622	30650	34316	
2335	0	30844	37504	30630	34268	
2336	0	32176	37268	30640	34213	
2337	0	35784	37288	30710	34136	
2338	0	31198	37338	30762	34070	
2339	0	31096	37329	30794	34028	
2340	0	29672	37360	30855	34001	
2341	0	31168	37628	30926	34000	
2342	0	31831	37640	30996	34006	
2343	0	29806	37704	31003	34034	
2344	0	29164	37896	31054	34048	
2345	0	27368	38040	31023	34106	
2346	0	24174	38090	30990	34143	
2347	0	23676	38168	30935	34158	
2348	0	27302	38312	30869	34171	
2349	0	32064	38052	30770	34206	
2350	0	35730	37956	30688	34202	
2351	0	38836	38014	30612	34192	
2352	0	43180	38062	30532	34158	
2353	0	45984	37998	30460	34136	
2354	0	48378	37752	30418	34126	
2355	0	44940	37684	30402	34071	
2356	0	36676	37168	30388	34050	
2357	0	32120	37122	30423	34028	
2358	0	28677	36978	30458	33984	
2359	0	19794	36886	30496	33980	
2360	0	12971	37050	30540	34004	
2361	0	16326	37166	30580	34028	
2362	0	19434	37388	30652	34024	
2363	0	22782	37558	30714	34056	
2364	0	28656	38048	30733	34124	
2365	0	33965	38260	30764	34170	
2366	0	35696	38570	30775	34208	
2367	0	38336	38688	30744	34240	
2368	0	40276	38933	30706	34258	
2369	0	41160	38954	30614	34252	
2370	0	40908	38950	30476	34270	
2371	0	40368	38868	30336	34242	
2372	0	38108	38684	30192	34208	
2373	0	37285	38455	30059	34178	
2374	0	36208	38334	29938	34112	
2375	0	37258	38240	29858	34080	
2376	0	39378	37898	29780	34048	
2377	0	36056	37865	29722	34018	
2378	0	33046	37612	29716	34002	
2379	0	28158	37332	29700	33988	
2380	0	24242	37376	29752	34004	
2381	0	20914	37344	29815	34000	
2382	0	22286	37412	29936	33991	
2383	0	24570	37397	30032	33968	
2384	0	30684	37518	30137	33978	
2385	0	37076	37704	30210	34014	
2386	0	37377	37921	30284	34014	
2387	0	38498	37972	30308	34056	
2388	0	37434	38110	30312	34102	
2389	0	33908	38088	30296	34148	
2390	0	30576	38032	30280	34184	
2391	0	26767	38087	30247	34216	
2392	0	27018	38078	30200	34239	
2393	0	26452	37936	30168	34223	
2394	0	29644	37814	30116	34246	
2395	0	34208	37687	30066	34240	
2396	0	40556	37690	30060	34194	
2397	0	47076	37856	30052	34180	
2398	0	45634	37572	30042	34136	
2399	0	41295	37125	30014	34104	
2400	0	36872	37018	29998	34090	
2401	0	34044	36892	30023	34048	
2402	0	30252	36637	30032	34050	
2403	0	26702	36692	30053	34032	
2404	0	24590	36662	30088	34048	
2405	0	24272	36788	30113	34064	
2406	0	22678	36930	30185	34092	
2407	0	25274	36931	30200	34098	
2408	0	28392	37183	30204	34116	
2409	0	29838	37250	30226	34174	
2410	0	33424	37380	30245	34198	
2411	0	33568	37516	30230	34206	
2412	0	31376	37462	30224	34232	
2413	0	29029	37524	30174	34249	
2414	0	29900	37404	30092	34260	
2415	0	37352	37476	30043	34250	
2416	0	42100	37636	29978	34258	
2417	0	46152	37660	29908	34230	
2418	0	51360	37284	29888	34168	
2419	0	50848	36946	29750	34200	
2420	0	43848	37232	29698	34168	
2421	0	37368	37314	29758	34066	
2422	0	29713	36576	29750	34112	
2423	0	18832	35962	29630	34252	
2424	0	10184	36182	29582	34304	
2425	0	11976	36728	29608	34220	
2426	0	19594	37064	29704	34087	
2427	0	30281	37154	29785	33972	
2428	0	33114	37200	29841	33848	
2429	0	33826	37442	29859	33759	
2430	0	33184	37584	29844	33725	
2431	0	30766	37736	29801	33754	
2432	0	29070	37868	29804	33894	
2433	0	31336	37696	29794	34138	
2434	0	34648	37552	29775	34310	
2435	0	38460	37590	29797	34490	
2436	0	39840	37690	29796	34554	
2437	0	39920	37780	29760	34572	
2438	0	39308	37784	29680	34592	
2439	0	39310	37778	29572	34612	
2440	0	40756	37690	29456	34614	
2441	0	38816	37498	29350	34604	
2442	0	35380	37224	29266	34568	
2443	0	32640	37200	29212	34513	
2444	0	25588	37014	29210	34444	
2445	0	23452	36909	29194	34350	
2446	0	24892	36972	29191	34259	
2447	0	26746	36880	29192	34180	
2448	0	31695	36908	29184	34134	
2449	0	34078	37077	29168	34038	
2450	0	40912	37336	29143	33912	
2451	0	49472	37976	29202	33821	
2452	0	44720	38062	29198	33728	
2453	0	37472	37788	29152	33648	
2454	0	29537	37932	29161	33588	
2455	0	19079	38144	29140	33618	
2456	0	13864	38496	29130	33628	
2457	0	11458	38582	29100	33678	
2458	0	18473	38514	29072	33760	
2459	0	29260	38500	29067	33852	
2460	0	37896	38344	29042	33952	
2461	0	43406	38178	29008	34014	
2462	0	44748	37891	28983	34044	
2463	0	42870	37543	28966	34060	
2464	0	40932	37207	28925	34044	
2465	0	39162	36866	28920	34048	
2466	0	38439	36570	28934	34038	
2467	0	37090	36456	28971	34020	
2468	0	35118	36329	29017	34040	
2469	0	27988	36146	29110	34070	
2470	0	23382	36145	29200	34106	
2471	0	23642	36184	29318	34136	
2472	0	23554	36224	29420	34200	
2473	0	22948	36331	29522	34242	
2474	0	26636	36316	29632	34290	
2475	0	34462	36514	29734	34322	
2476	0	38492	36708	29787	34342	
2477	0	36290	36656	29804	34324	
2478	0	35974	36630	29800	34351	
2479	0	37916	36810	29764	34334	
2480	0	37455	36724	29722	34336	
2481	0	37242	36680	29684	34292	
2482	0	36176	36639	29610	34264	
2483	0	36056	36666	29551	34208	
2484	0	37800	36725	29495	34182	
2485	0	39895	36716	29428	34160	
2486	0	38184	36564	29356	34176	
2487	0	36808	36650	29319	34155	
2488	0	34176	36469	29268	34166	
2489	0	39012	36512	29258	34172	
2490	0	43372	36660	29244	34147	
2491	0	35205	36388	29270	34166	
2492	0	25854	36328	29264	34144	
2493	0	13108	36441	29283	34134	
2494	0	5616	36544	29294	34138	
2495	0	5839	36708	29321	34164	
2496	0	10012	36956	29335	34196	
2497	0	13527	37294	29336	34247	
2498	0	26615	37384	29352	34292	
2499	0	40273	37876	29328	34376	
2500	0	46676	38338	29276	34468	
2501	0	47408	38392	29216	34488	
2502	0	45764	38356	29134	34556	
2503	0	42872	37976	29010	34572	
2504	0	41076	37786	28900	34566	
2505	0	39232	37652	28788	34541	
2506	0	37680	37408	28700	34518	
2507	0	37384	37044	28572	34448	
2508	0	39538	36868	28478	34396	
2509	0	41718	36824	28406	34308	
2510	0	40032	36600	28424	34200	
2511	0	34688	36378	28436	34088	
2512	0	29076	36090	28438	34070	
2513	0	27222	36090	28416	34065	
2514	0	26186	36300	28500	34039	
2515	0	24314	36400	28612	34002	
2516	0	27200	36679	28698	34028	
2517	0	26408	36900	28782	34036	
2518	0	26782	37039	28916	34034	
2519	0	28610	37026	28986	34044	
2520	0	34186	37082	29028	34094	
2521	0	40568	37090	29029	34124	
2522	0	47274	37434	29016	34160	
2523	0	46810	37226	28958	34175	
2524	0	41802	36652	28912	34154	
2525	0	33424	36202	28864	34160	
2526	0	20660	35892	28816	34128	
2527	0	13672	35666	28764	34062	
2528	0	15006	35598	28712	34004	
2529	0	24884	35518	28668	33928	
2530	0	33800	35540	28672	33896	
2531	0	38154	35635	28717	33808	
2532	0	39808	35578	28760	33764	
2533	0	42464	35694	28826	33690	
2534	0	42854	35664	28876	33670	
2535	0	39110	35554	28936	33696	
2536	0	32826	35350	28982	33688	
2537	0	25832	35348	29000	33750	
2538	0	22687	35264	28976	33792	
2539	0	21193	35444	29024	33896	
2540	0	24310	35677	29032	33968	
2541	0	30940	35756	29010	34082	
2542	0	38632	36120	29050	34190	
2543	0	40226	36242	29023	34267	
2544	0	40008	36268	29026	34336	
2545	0	38508	36256	29004	34406	
2546	0	37544	36202	28978	34432	
2547	0	36884	36218	28906	34444	
2548	0	38352	35990	28864	34450	
2549	0	42186	36224	28824	34422	
2550	0	40382	36030	28738	34378	
2551	0	35894	35724	28660	34304	
2552	0	30764	35662	28610	34258	
2553	0	20740	35520	28545	34198	
2554	0	14229	35512	28484	34128	
2555	0	13886	35502	28460	34092	
2556	0	20897	35684	28448	34066	
2557	0	29672	35762	28413	34035	
2558	0	34592	36010	28428	34044	
2559	0	37439	36210	28460	34060	
2560	0	39696	36400	28481	34092	
2561	0	42188	36700	28494	34108	
2562	0	43210	36744	28498	34138	
2563	0	43285	36784	28514	34148	
2564	0	39458	36652	28482	34148	
2565	0	37890	36506	28431	34166	
2566	0	42234	36560	28344	34181	
2567	0	44856	36622	28300	34164	
2568	0	38472	36330	28212	34130	
2569	0	26972	36247	28136	34102	
2570	0	15882	36386	28108	34048	
2571	0	7904	36452	28066	34016	
2572	0	7447	36506	28038	33964	
2573	0	15278	36700	28022	33940	
2574	0	19932	36798	28020	33914	
2575	0	30204	36904	28032	33924	
2576	0	38554	37130	28048	33910	
2577	0	44444	37367	28040	33926	
2578	0	49460	37152	28034	33926	
2579	0	48832	37164	27992	33937	
2580	0	44792	37524	27974	33962	
2581	0	38990	36814	27948	33900	
2582	0	31688	36568	27748	33992	
2583	0	25569	36538	27689	34173	
2584	0	23188	36060	27728	34280	
2585	0	28072	35600	27864	34308	
2586	0	32720	35532	27944	34326	
2587	0	34064	35366	28034	34318	
2588	0	33762	35046	28161	34288	
2589	0	34009	35060	28256	34220	
2590	0	35444	35040	28327	34198	
2591	0	36522	34920	28410	34182	
2592	0	36038	34810	28446	34160	
2593	0	36664	34908	28534	34176	
2594	0	39093	34824	28552	34152	
2595	0	40886	35079	28575	34154	
2596	0	39174	35126	28569	34084	
2597	0	34324	35088	28588	33998	
2598	0	27530	34950	28642	33890	
2599	0	19682	34906	28653	33774	
2600	0	17536	35008	28662	33674	
2601	0	22992	35112	28594	33626	
2602	0	30980	35444	28574	33616	
2603	0	35060	35692	28522	33610	
2604	0	34658	35720	28505	33660	
2605	0	33274	35712	28486	33704	
2606	0	34562	35568	28462	33754	
2607	0	38232	35598	28372	33816	
2608	0	43203	35596	28276	33856	
2609	0	42032	35690	28225	33918	
2610	0	38429	35358	28164	33942	
2611	0	31752	35154	28160	33952	
2612	0	22048	34946	28178	33936	
2613	0	17388	34810	28170	33941	
2614	0	23486	34766	28214	33929	
2615	0	32018	34832	28252	33910	
2616	0	36177	34867	28272	33924	
2617	0	37986	34888	28284	33916	
2618	0	36290	34745	28282	33923	
2619	0	35172	34798	28285	33914	
2620	0	33420	34808	28283	33920	
2621	0	31472	34788	28295	33912	
2622	0	33763	34836	28272	33906	
2623	0	35142	35022	28240	33914	
2624	0	37652	35229	28192	33928	
2625	0	39344	35342	28166	33944	
2626	0	38800	35414	28137	33940	
2627	0	32086	35358	28116	33968	
2628	0	25844	35392	28112	33988	
2629	0	26304	35504	28106	33990	
2630	0	28930	35576	28122	34016	
2631	0	27726	35748	28092	34048	
2632	0	27993	35946	28076	34114	
2633	0	28423	36096	28044	34172	
2634	0	29858	36096	28014	34234	
2635	0	30192	36212	27991	34279	
2636	0	31626	36144	27970	34316	
2637	0	34698	36242	27936	34350	
2638	0	37698	36380	27936	34370	
2639	0	40386	36466	27864	34380	
2640	0	40522	36366	27818	34373	
2641	0	39214	36300	27782	34340	
2642	0	38838	36131	27723	34298	
2643	0	34816	35788	27680	34266	
2644	0	29168	35677	27646	34204	
2645	0	27126	35592	27610	34182	
2646	0	28284	35530	27560	34142	
2647	0	30268	35564	27542	34102	
2648	0	29952	35410	27509	34063	
2649	0	33582	35516	27524	34040	
2650	0	33961	35620	27560	34026	
2651	0	33872	35606	27594	34018	
2652	0	34676	35759	27614	33984	
2653	0	39520	35818	27622	33984	
2654	0	42988	36068	27630	33968	
2655	0	39186	35846	27626	33998	
2656	0	29128	35650	27568	34026	
2657	0	20231	35668	27552	34052	
2658	0	16680	35584	27542	34068	
2659	0	19366	35730	27524	34102	
2660	0	26672	35688	27532	34132	
2661	0	33961	35922	27542	34154	
2662	0	36964	36116	27552	34192	
2663	0	36724	36186	27552	34224	
2664	0	34650	36052	27558	34240	
2665	0	34124	36018	27548	34268	
2666	0	36490	36130	27562	34248	
2667	0	39014	36032	27558	34218	
2668	0	38864	35970	27538	34176	
2669	0	36090	35688	27506	34110	
2670	0	32858	35410	27486	34080	
2671	0	30192	35128	27466	33988	
2672	0	29672	34926	27495	33878	
2673	0	31268	34816	27477	33804	
2674	0	33590	34836	27504	33716	
2675	0	36776	34812	27533	33639	
2676	0	39408	34804	27576	33578	
2677	0	35338	34722	27592	33564	
2678	0	35019	34581	27620	33540	
2679	0	38382	34896	27678	33560	
2680	0	40698	34856	27720	33582	
2681	0	34098	34834	27746	33646	
2682	0	22810	34618	27716	33726	
2683	0	16642	34808	27738	33816	
2684	0	12373	34954	27774	33932	
2685	0	14514	35299	27816	34066	
2686	0	20775	35418	27854	34156	
2687	0	33708	35836	27842	34286	
2688	0	42120	36304	27864	34436	
2689	0	45304	36072	27866	34513	
2690	0	45708	35933	27824	34612	
2691	0	43060	36074	27801	34672	
2692	0	39532	35783	27755	34700	
2693	0	35551	35532	27716	34688	
2694	0	31418	35191	27648	34674	
2695	0	29872	34892	27612	34608	
2696	0	29078	34668	27584	34504	
2697	0	28056	34650	27553	34394	
2698	0	28442	34490	27550	34264	
2699	0	32388	34595	27560	34184	
2700	0	34678	34884	27598	34090	
2701	0	34960	34842	27610	33984	
2702	0	34016	34772	27644	33962	
2703	0	33346	34886	27710	33948	
2704	0	33417	35015	27713	33946	
2705	0	33856	35120	27712	33956	
2706	0	36337	35243	27713	33980	
2707	0	39860	35428	27676	34006	
2708	0	40586	35472	27630	34034	
2709	0	39378	35508	27566	34082	
2710	0	34714	35228	27508	34094	
2711	0	27288	35034	27469	34096	
2712	0	19314	35012	27399	34104	
2713	0	17884	34927	27326	34092	
2714	0	25084	34891	27266	34088	
2715	0	30336	34926	27232	34050	
2716	0	32616	35151	27228	34016	
2717	0	37746	35292	27226	33978	
2718	0	40914	35432	27232	33930	
2719	0	39050	35360	27168	33936	
2720	0	37112	35268	27128	33910	
2721	0	34642	35466	27130	33945	
2722	0	30890	35446	27124	33964	
2723	0	29408	35616	27094	34010	
2724	0	32274	35630	27090	34050	
2725	0	38692	35930	27090	34086	
2726	0	35737	35848	27100	34120	
2727	0	32150	35826	27082	34172	
2728	0	29484	35956	27076	34194	
2729	0	20892	35828	27040	34180	
2730	0	20535	35796	26975	34184	
2731	0	24345	35759	26967	34176	
2732	0	30084	35944	26976	34170	
2733	0	33983	35952	26969	34122	
2734	0	35520	36024	26962	34100	
2735	0	36324	35960	26962	34070	
2736	0	38754	36015	26932	34030	
2737	0	40554	36054	26904	34000	
2738	0	41270	36016	26874	33985	
2739	0	39984	35860	26851	33980	
2740	0	38860	35466	26830	33974	
2741	0	36372	35378	26816	33994	
2742	0	32336	35232	26780	34024	
2743	0	30720	35072	26768	34038	
2744	0	29586	35094	26757	34060	
2745	0	27636	35100	26772	34109	
2746	0	25876	35134	26782	34170	
2747	0	27526	35156	26782	34238	
2748	0	26143	35232	26816	34306	
2749	0	23552	35116	26830	34374	
2750	0	27234	35140	26870	34444	
2751	0	33152	35528	26905	34466	
2752	0	37512	35432	26924	34522	
2753	0	40844	35502	26950	34548	
2754	0	41786	35502	26952	34566	
2755	0	41331	35279	26978	34544	
2756	0	40934	35138	26951	34498	
2757	0	41456	34998	26958	34422	
2758	0	37918	34900	26970	34338	
2759	0	30974	34442	26913	34242	
2760	0	24694	34280	26882	34154	
2761	0	19772	34304	26896	34064	
2762	0	16456	34134	26872	33978	
2763	0	21440	34092	26898	33888	
2764	0	28520	34320	26912	33842	
2765	0	34154	34484	26940	33816	
2766	0	37113	34518	26942	33832	
2767	0	37388	34594	26977	33872	
2768	0	38464	34496	26962	33934	
2769	0	39056	34557	26952	33998	
2770	0	37790	34547	26948	34053	
2771	0	35668	34375	26932	34090	
2772	0	34232	34207	26898	34088	
2773	0	35202	34358	26868	34100	
2774	0	34366	34150	26826	34060	
2775	0	33424	34146	26797	34012	
2776	0	33698	34050	26760	33961	
2777	0	32012	34041	26756	33890	
2778	0	28628	34080	26752	33806	
2779	0	27008	34296	26728	33749	
2780	0	27520	34272	26728	33692	
2781	0	27469	34412	26717	33666	
2782	0	29036	34574	26708	33676	
2783	0	31774	34620	26726	33690	
2784	0	35202	34926	26756	33747	
2785	0	36386	35056	26745	33784	
2786	0	37654	35188	26744	33860	
2787	0	39826	35248	26717	33920	
2788	0	39402	35132	26684	33982	
2789	0	36712	35072	26676	34040	
2790	0	34196	34946	26666	34072	
2791	0	34148	34900	26600	34108	
2792	0	31280	34718	26564	34091	
2793	0	27951	34708	26538	34076	
2794	0	31716	34610	26514	34042	
2795	0	32621	34660	26450	33980	
2796	0	28860	34638	26414	33938	
2797	0	29062	34481	26386	33880	
2798	0	44886	34606	26356	33844	
2799	0	48908	34504	26324	33768	
2800	0	39086	34614	26280	33732	
2801	0	23752	34114	26220	33702	
2802	0	8318	34133	26192	33706	
2803	0	6430	34106	26168	33672	
2804	0	12782	34094	26138	33688	
2805	0	24936	34306	26137	33724	
2806	0	34440	34336	26136	33775	
2807	0	37568	34360	26156	33808	
2808	0	40006	34324	26146	33910	
2809	0	41952	34256	26165	33980	
2810	0	41090	34044	26180	34073	
2811	0	39750	33988	26150	34154	
2812	0	39140	34120	26150	34192	
2813	0	37696	33908	26142	34224	
2814	0	36368	33964	26112	34228	
2815	0	37108	34004	26114	34236	
2816	0	42377	33940	26116	34220	
2817	0	43804	33915	26120	34188	
2818	0	40015	33798	26121	34152	
2819	0	33386	33774	26127	34126	
2820	0	25826	33735	26138	34088	
2821	0	19622	33688	26174	34048	
2822	0	13578	33472	26194	34010	
2823	0	16394	33586	26196	33986	
2824	0	26696	33646	26218	33965	
2825	0	33580	33742	26244	33934	
2826	0	37166	33752	26250	33940	
2827	0	38336	33752	26290	33912	
2828	0	37804	33676	26284	33924	
2829	0	36810	33472	26267	33938	
2830	0	36018	33504	26280	33924	
2831	0	35014	33472	26252	33922	
2832	0	34412	33432	26214	33894	
2833	0	34026	33485	26214	33890	
2834	0	33335	33514	26164	33852	
2835	0	32891	33630	26132	33808	
2836	0	34210	33636	26115	33782	
2837	0	34344	33756	26068	33742	
2838	0	34032	33712	26036	33728	
2839	0	32292	33820	25990	33688	
2840	0	30755	33770	25918	33668	
2841	0	29936	33656	25900	33604	
2842	0	31746	33794	25864	33584	
2843	0	37126	33890	25814	33536	
2844	0	42048	33814	25776	33488	
2845	0	42006	33732	25706	33452	
2846	0	37366	33858	25676	33392	
2847	0	33764	33678	25686	33345	
2848	0	30066	33576	25698	33304	
2849	0	24126	33384	25662	33300	
2850	0	21552	33328	25696	33294	
2851	0	22852	33206	25692	33304	
2852	0	23586	33284	25720	33344	
2853	0	23824	33242	25744	33406	
2854	0	25750	33268	25804	33472	
2855	0	31111	33474	25844	33536	
2856	0	36036	33658	25873	33640	
2857	0	37008	33782	25935	33726	
2858	0	38680	33666	25976	33816	
2859	0	49250	33488	26006	33924	
2860	0	57918	33448	26026	33996	
2861	0	53948	33420	26048	34070	
2862	0	42978	33304	26016	34088	
2863	0	28002	33172	26012	34112	
2864	0	5068	33218	26017	34079	
2865	0	1867	33475	26018	34058	
2866	0	6803	33432	26020	34026	
2867	0	24932	33636	26013	33976	
2868	0	34184	33988	26026	33951	
2869	0	36024	34116	26022	33922	
2870	0	36644	34192	26008	33920	
2871	0	38274	34094	25970	33868	
2872	0	41848	33938	25964	33863	
2873	0	45946	33768	25894	33834	
2874	0	52480	33572	25874	33818	
2875	0	49410	33577	25854	33774	
2876	0	40230	33560	25834	33730	
2877	0	27416	33237	25824	33692	
2878	0	16278	33162	25834	33620	
2879	0	8933	33182	25857	33600	
2880	0	14890	33230	25888	33548	
2881	0	30242	33256	25921	33528	
2882	0	38010	33404	25944	33531	
2883	0	39248	33300	25972	33509	
2884	0	37872	33524	25980	33556	
2885	0	35802	33466	25985	33597	
2886	0	33479	33402	26010	33622	
2887	0	33194	33540	26008	33648	
2888	0	34820	33419	26004	33672	
2889	0	35712	33501	25975	33696	
2890	0	35022	33546	26004	33688	
2891	0	34324	33388	26000	33668	
2892	0	34596	33624	25994	33644	
2893	0	34596	33686	25976	33644	
2894	0	33960	33571	26004	33576	
2895	0	30748	33589	26014	33512	
2896	0	27000	33548	26002	33482	
2897	0	26946	33500	25994	33452	
2898	0	29084	33396	25996	33396	
2899	0	34528	33598	25978	33346	
2900	0	37664	33616	25942	33342	
2901	0	37542	33726	25944	33284	
2902	0	36854	33654	25932	33274	
2903	0	33732	33632	25966	33204	
2904	0	30765	33572	25970	33180	
2905	0	29860	33516	25980	33172	
2906	0	31288	33520	25981	33140	
2907	0	29022	33452	25996	33118	
2908	0	29410	33596	26016	33120	
2909	0	31502	33642	26012	33144	
2910	0	33116	33860	26010	33176	
2911	0	33892	33760	25988	33200	
2912	0	35848	33838	26008	33222	
2913	0	37466	33798	25998	33264	
2914	0	39790	33766	25968	33298	
2915	0	41520	33568	25972	33353	
2916	0	38326	33564	25944	33402	
2917	0	34172	33576	25936	33424	
2918	0	26774	33508	25962	33436	
2919	0	21012	33474	25962	33488	
2920	0	19387	33588	25968	33514	
2921	0	25092	33666	26020	33562	
2922	0	35750	33962	26058	33618	
2923	0	37359	33912	26092	33679	
2924	0	38384	34100	26158	33743	
2925	0	37986	34058	26194	33798	
2926	0	37024	34144	26218	33847	
2927	0	32262	34026	26258	33904	
2928	0	29744	33936	26274	33932	
2929	0	27248	33704	26286	33938	
2930	0	34292	33934	26312	33972	
2931	0	43612	33906	26306	33954	
2932	0	44387	33842	26313	33936	
2933	0	37022	33972	26300	33924	
2934	0	27896	33650	26320	33924	
2935	0	14787	33562	26328	33920	
2936	0	5850	33749	26361	33930	
2937	0	9288	33598	26410	33940	
2938	0	25216	33670	26434	33944	
2939	0	37646	33962	26488	33980	
2940	0	41612	33916	26502	34021	
2941	0	42154	33936	26534	34048	
2942	0	41274	33898	26574	34100	
2943	0	39764	33797	26584	34118	
2944	0	38816	33666	26608	34142	
2945	0	37788	33852	26608	34116	
2946	0	36722	33842	26604	34068	
2947	0	35478	33972	26602	34028	
2948	0	35318	33882	26598	33970	
2949	0	35988	33804	26600	33884	
2950	0	34520	33930	26600	33846	
2951	0	32404	33898	26596	33760	
2952	0	30836	33894	26598	33701	
2953	0	31294	33888	26570	33636	
2954	0	31838	33936	26574	33556	
2955	0	33600	33940	26552	33486	
2956	0	33908	33898	26534	33446	
2957	0	32010	33888	26529	33400	
2958	0	30036	33688	26526	33360	
2959	0	32220	33888	26575	33317	
2960	0	37280	33988	26576	33292	
2961	0	37680	33984	26592	33296	
2962	0	35400	34087	26580	33288	
2963	0	31736	34112	26620	33282	
2964	0	25758	34060	26604	33304	
2965	0	23390	34036	26628	33316	
2966	0	26975	34026	26631	33320	
2967	0	30288	34188	26628	33321	
2968	0	29620	34178	26610	33323	
2969	0	32599	34233	26618	33344	
2970	0	34213	34294	26604	33386	
2971	0	34406	34424	26610	33396	
2972	0	36064	34416	26602	33416	
2973	0	36632	34442	26600	33431	
2974	0	36310	34376	26620	33440	
2975	0	34762	34516	26628	33440	
2976	0	32952	34412	26612	33458	
2977	0	31566	34434	26622	33467	
2978	0	32090	34484	26616	33457	
2979	0	32858	34544	26616	33445	
2980	0	33708	34594	26616	33448	
2981	0	34242	34576	26600	33475	
2982	0	35394	34586	26556	33476	
2983	0	35558	34623	26556	33456	
2984	0	35150	34550	26540	33454	
2985	0	33504	34596	26528	33460	
2986	0	30990	34356	26530	33480	
2987	0	30232	34420	26504	33492	
2988	0	29876	34508	26492	33512	
2989	0	30269	34198	26496	33536	
2990	0	32396	34446	26514	33550	
2991	0	35866	34584	26565	33608	
2992	0	35756	34568	26630	33672	
2993	0	30344	34332	26672	33712	
2994	0	25834	34424	26719	33778	
2995	0	24266	34600	26752	33818	
2996	0	26908	34496	26782	33881	
2997	0	31574	34610	26803	33920	
2998	0	34320	34752	26828	33940	
2999	0	35212	34666	26844	33968	
3000	0	36512	34688	26842	33970	
3001	0	37610	34704	26874	33982	
3002	0	37915	34622	26888	33972	
3003	0	37906	34680	26892	33908	
3004	0	36184	34448	26929	33856	
3005	0	33062	34390	26922	33790	
3006	0	29976	34254	26940	33748	
3007	0	28172	34128	26934	33696	
3008	0	30716	34292	26962	33670	
3009	0	33940	34384	26992	33646	
3010	0	37358	34368	27018	33624	
3011	0	36864	34460	27048	33640	
3012	0	33752	34388	27074	33648	
3013	0	28324	34220	27093	33678	
3014	0	23630	34164	27094	33700	
3015	0	26770	34213	27096	33754	
3016	0	33232	34218	27102	33770	
3017	0	42338	34100	27104	33804	
3018	0	45104	34008	27100	33783	
3019	0	41584	33952	27096	33762	
3020	0	34213	33928	27104	33751	
3021	0	22011	33948	27098	33750	
3022	0	14787	33806	27108	33704	
3023	0	16915	33958	27112	33636	
3024	0	28696	34042	27115	33600	
3025	0	36686	34286	27096	33583	
3026	0	39330	34388	27094	33540	
3027	0	39282	34260	27048	33560	
3028	0	39368	34344	27038	33554	
3029	0	37460	34376	27016	33526	
3030	0	35990	34310	26992	33506	
3031	0	33540	34236	26958	33523	
3032	0	32948	34332	26946	33536	
3033	0	30164	34300	26902	33544	
3034	0	28959	34232	26876	33554	
3035	0	29898	34400	26880	33568	
3036	0	29005	34335	26890	33568	
3037	0	27012	34348	26883	33547	
3038	0	29105	34617	26893	33552	
3039	0	33600	34598	26907	33542	
3040	0	36066	34921	26910	33552	
3041	0	36346	34960	26916	33536	
3042	0	35840	35021	26880	33541	
3043	0	35566	34991	26850	33496	
3044	0	35081	34938	26828	33484	
3045	0	34804	34968	26816	33451	
3046	0	35046	34922	26776	33446	
3047	0	35286	34890	26760	33418	
3048	0	34586	34730	26736	33370	
3049	0	33228	34632	26740	33354	
3050	0	31988	34760	26734	33322	
3051	0	30226	34640	26742	33308	
3052	0	29524	34740	26763	33324	
3053	0	29032	34725	26768	33340	
3054	0	30766	34760	26793	33366	
3055	0	33090	34748	26800	33418	
3056	0	33446	34904	26826	33460	
3057	0	33482	34820	26849	33526	
3058	0	32810	34928	26840	33556	
3059	0	33164	34696	26820	33602	
3060	0	33666	34900	26842	33650	
3061	0	33894	34728	26856	33666	
3062	0	34924	34768	26838	33684	
3063	0	34480	34830	26829	33664	
3064	0	35392	34778	26814	33672	
3065	0	36690	34748	26816	33658	
3066	0	35012	34656	26848	33644	
3067	0	31888	34712	26884	33608	
3068	0	28296	34564	26894	33612	
3069	0	24950	34401	26902	33628	
3070	0	25280	34442	26927	33632	
3071	0	30840	34561	26963	33636	
3072	0	39710	34668	26984	33664	
3073	0	42680	34276	26994	33680	
3074	0	39798	34357	27034	33712	
3075	0	39230	34282	27054	33716	
3076	0	36550	34068	27052	33730	
3077	0	28042	34014	27070	33760	
3078	0	21324	33862	27068	33794	
3079	0	20542	33942	27082	33816	
3080	0	20974	33912	27064	33844	
3081	0	22052	34010	27066	33862	
3082	0	25861	34100	27080	33894	
3083	0	33534	34310	27086	33927	
3084	0	38538	34384	27072	33958	
3085	0	39140	34362	27064	33981	
3086	0	37823	34478	27048	34004	
3087	0	37156	34356	27034	34004	
3088	0	37672	34398	26998	34018	
3089	0	37568	34350	26982	33995	
3090	0	36842	34496	26968	33972	
3091	0	35180	34360	26947	33940	
3092	0	33328	34226	26920	33908	
3093	0	31926	34310	26923	33880	
3094	0	33000	34366	26919	33873	
3095	0	33202	34376	26912	33860	
3096	0	31940	34377	26932	33804	
3097	0	34324	34418	26916	33786	
3098	0	37932	34416	26916	33781	
3099	0	37396	34562	26928	33762	
3100	0	32668	34468	26916	33730	
3101	0	27322	34374	26898	33702	
3102	0	23817	34354	26884	33672	
3103	0	23580	34206	26846	33636	
3104	0	29526	34426	26833	33624	
3105	0	32652	34475	26781	33594	
3106	0	32516	34560	26758	33548	
3107	0	30852	34540	26744	33516	
3108	0	30500	34520	26706	33506	
3109	0	32964	34784	26708	33490	
3110	0	35616	34674	26704	33494	
3111	0	37150	34826	26686	33510	
3112	0	36472	34906	26712	33516	
3113	0	35520	34920	26720	33525	
3114	0	35316	34937	26718	33550	
3115	0	35422	34856	26716	33563	
3116	0	33880	35016	26712	33570	
3117	0	32752	35010	26726	33600	
3118	0	32986	35129	26708	33633	
3119	0	32430	34992	26708	33664	
3120	0	30420	34948	26703	33668	
3121	0	30548	34964	26669	33682	
3122	0	31492	34920	26680	33673	
3123	0	31306	34952	26670	33678	
3124	0	32142	34956	26671	33676	
3125	0	33120	34932	26660	33684	
3126	0	32918	34928	26661	33680	
3127	0	32840	34724	26636	33717	
3128	0	33606	34778	26684	33743	
3129	0	33684	34716	26692	33738	
3130	0	34284	34778	26712	33780	
3131	0	34498	34672	26732	33804	
3132	0	33915	34856	26738	33844	
3133	0	33366	34708	26744	33882	
3134	0	32885	34738	26752	33906	
3135	0	32312	34744	26752	33920	
3136	0	32321	34714	26738	33972	
3137	0	32928	34772	26733	33986	
3138	0	36416	34844	26734	33998	
3139	0	42068	34880	26744	34005	
3140	0	42448	34978	26726	34000	
3141	0	37952	34898	26752	33968	
3142	0	30982	34880	26746	33962	
3143	0	22994	34716	26724	33962	
3144	0	17294	34608	26698	33997	
3145	0	20394	34641	26684	34016	
3146	0	28498	34800	26716	34036	
3147	0	30800	34912	26734	34038	
3148	0	26744	34934	26732	34070	
3149	0	25396	34958	26752	34112	
3150	0	30880	34946	26772	34136	
3151	0	34714	34880	26780	34120	
3152	0	37220	35008	26816	34144	
3153	0	39918	34882	26818	34132	
3154	0	40142	34830	26834	34114	
3155	0	41068	34723	26856	34094	
3156	0	40975	34668	26856	34068	
3157	0	39012	34503	26866	34053	
3158	0	34780	34400	26888	34028	
3159	0	29792	34130	26856	34016	
3160	0	26191	34016	26857	34020	
3161	0	28020	34148	26826	34028	
3162	0	30178	33940	26840	34054	
3163	0	29260	34198	26858	34078	
3164	0	30680	34290	26848	34107	
3165	0	31792	34513	26850	34156	
3166	0	33348	34578	26850	34196	
3167	0	35054	34711	26852	34272	
3168	0	34734	34876	26858	34316	
3169	0	32944	35144	26867	34342	
3170	0	31770	35192	26874	34364	
3171	0	32086	35354	26848	34368	
3172	0	33270	35466	26816	34352	
3173	0	33812	35502	26774	34320	
3174	0	34276	35450	26740	34254	
3175	0	36521	35402	26706	34184	
3176	0	36976	35426	26652	34110	
3177	0	35838	35256	26628	34031	
3178	0	33734	35058	26608	33959	
3179	0	32124	35024	26604	33898	
3180	0	30012	34824	26620	33827	
3181	0	27226	34948	26626	33808	
3182	0	31458	34927	26664	33796	
3183	0	35114	34977	26676	33846	
3184	0	35246	34919	26708	33856	
3185	0	34104	34900	26746	33940	
3186	0	30678	34966	26756	34026	
3187	0	29718	34966	26794	34088	
3188	0	32194	35075	26794	34176	
3189	0	36048	35136	26808	34250	
3190	0	36722	35134	26800	34334	
3191	0	34466	35098	26788	34396	
3192	0	29872	35061	26764	34415	
3193	0	26286	35056	26757	34416	
3194	0	26514	35058	26746	34393	
3195	0	30560	35180	26736	34368	
3196	0	34528	35282	26714	34316	
3197	0	36580	35232	26708	34274	
3198	0	35736	35364	26715	34224	
3199	0	32276	35292	26712	34206	
3200	0	28370	35300	26748	34178	
3201	0	26936	35366	26744	34142	
3202	0	27794	35374	26772	34140	
3203	0	33540	35208	26804	34172	
3204	0	39758	35524	26818	34183	
3205	0	41180	35511	26832	34220	
3206	0	38980	35408	26868	34232	
3207	0	35632	35234	26864	34254	
3208	0	31935	35088	26876	34260	
3209	0	30154	34940	26918	34304	
3210	0	31024	34894	26926	34316	
3211	0	34078	35048	26930	34320	
3212	0	37476	35040	26960	34340	
3213	0	40872	35062	26961	34320	
3214	0	40006	35086	26988	34330	
3215	0	31523	34904	27018	34324	
3216	0	24116	34640	27010	34324	
3217	0	23130	34750	27012	34332	
3218	0	19909	34740	27024	34332	
3219	0	24076	34644	27004	34340	
3220	0	28209	34782	27023	34340	
3221	0	31388	34738	27028	34320	
3222	0	33013	34834	27073	34334	
3223	0	33302	34880	27067	34332	
3224	0	34062	34816	27054	34332	
3225	0	35384	35120	27042	34348	
3226	0	35036	35010	27052	34357	
3227	0	36072	35108	27036	34358	
3228	0	38618	35244	27032	34380	
3229	0	37420	35198	27038	34394	
3230	0	35214	35237	27035	34392	
3231	0	35190	35226	27048	34392	
3232	0	33626	35226	27070	34394	
3233	0	30240	35234	27030	34390	
3234	0	28128	35183	27030	34384	
3235	0	30834	35232	27042	34333	
3236	0	34898	35208	27014	34293	
3237	0	35498	34996	27012	34240	
3238	0	34500	34944	26994	34173	
3239	0	32773	34824	27013	34084	
3240	0	31818	34710	26989	34030	
3241	0	31578	34736	27010	33960	
3242	0	32166	34848	26998	33936	
3243	0	33842	34816	27012	33912	
3244	0	36866	34904	27012	33920	
3245	0	38332	35008	27007	33946	
3246	0	36582	35016	27008	33970	
3247	0	33482	34964	26990	33994	
3248	0	28372	34922	27002	34048	
3249	0	25468	34862	26986	34119	
3250	0	25933	35060	26996	34160	
3251	0	30181	35064	26986	34180	
3252	0	32272	35254	27018	34228	
3253	0	32772	35436	27025	34274	
3254	0	32956	35584	27009	34288	
3255	0	34128	35528	27036	34308	
3256	0	34834	35440	27046	34326	
3257	0	34976	35460	27020	34326	
3258	0	35042	35520	26988	34314	
3259	0	34602	35458	26984	34272	
3260	0	35180	35368	26956	34226	
3261	0	36536	35336	26932	34200	
3262	0	39776	35464	26921	34144	
3263	0	42784	35500	26903	34058	
3264	0	42298	35328	26909	34026	
3265	0	34772	35278	26900	33968	
3266	0	22630	34917	26898	33947	
3267	0	17194	34935	26948	33946	
3268	0	23216	35004	26986	33958	
3269	0	29487	35065	26996	34013	
3270	0	35024	35215	27047	34081	
3271	0	34500	35122	27078	34152	
3272	0	30016	35160	27099	34253	
3273	0	20609	35020	27125	34364	
3274	0	14473	35180	27176	34460	
3275	0	23066	35308	27224	34544	
3276	0	32496	35260	27249	34652	
3277	0	38172	35395	27284	34700	
3278	0	39702	35562	27308	34752	
3279	0	41708	35526	27308	34776	
3280	0	43816	35348	27324	34816	
3281	0	42402	35468	27324	34794	
3282	0	38512	35292	27323	34772	
3283	0	33552	35136	27356	34738	
3284	0	30356	35034	27354	34698	
3285	0	29022	35224	27364	34658	
3286	0	28726	35066	27392	34614	
3287	0	31800	35216	27394	34558	
3288	0	35834	35332	27436	34524	
3289	0	36360	35480	27439	34492	
3290	0	35306	35478	27460	34460	
3291	0	38214	35558	27442	34438	
3292	0	42130	35572	27454	34404	
3293	0	39200	35462	27432	34356	
3294	0	35386	35310	27430	34284	
3295	0	33498	35148	27413	34228	
3296	0	28615	35082	27411	34170	
3297	0	23934	35012	27422	34114	
3298	0	19609	34912	27426	34062	
3299	0	20437	35012	27420	34036	
3300	0	20136	35008	27428	34012	
3301	0	24360	35190	27458	34048	
3302	0	28696	35012	27487	34048	
3303	0	32690	35140	27484	34114	
3304	0	35475	35324	27494	34144	
3305	0	37748	35460	27522	34198	
3306	0	40030	35536	27520	34262	
3307	0	42328	35441	27520	34300	
3308	0	43962	35476	27528	34344	
3309	0	45352	35312	27531	34380	
3310	0	42159	35422	27534	34400	
3311	0	35700	35280	27525	34400	
3312	0	29702	35149	27530	34401	
3313	0	22070	35067	27525	34382	
3314	0	17656	35215	27512	34401	
3315	0	21480	35232	27516	34384	
3316	0	28546	35324	27488	34380	
3317	0	32668	35328	27498	34392	
3318	0	35084	35482	27504	34408	
3319	0	36146	35640	27500	34432	
3320	0	36556	35706	27494	34432	
3321	0	36762	35764	27488	34474	
3322	0	35990	35688	27466	34476	
3323	0	34716	35744	27444	34462	
3324	0	32524	35648	27424	34481	
3325	0	31364	35526	27400	34426	
3326	0	32064	35644	27360	34392	
3327	0	33198	35608	27319	34354	
3328	0	34509	35642	27298	34316	
3329	0	34584	35524	27278	34264	
3330	0	34670	35560	27272	34244	
3331	0	32738	35428	27280	34224	
3332	0	32200	35496	27290	34228	
3333	0	35078	35462	27322	34272	
3334	0	34712	35520	27376	34316	
3335	0	33332	35514	27386	34364	
3336	0	31564	35538	27422	34448	
3337	0	28576	35646	27493	34492	
3338	0	26308	35605	27534	34564	
3339	0	28938	35752	27538	34658	
3340	0	32360	35936	27557	34744	
3341	0	32930	35918	27604	34804	
3342	0	33634	36116	27604	34850	
3343	0	34649	36056	27644	34888	
3344	0	35650	36112	27623	34880	
3345	0	35750	35940	27608	34882	
3346	0	36288	35910	27600	34840	
3347	0	36106	35782	27581	34748	
3348	0	33928	35736	27562	34682	
3349	0	32703	35488	27542	34606	
3350	0	32215	35360	27554	34528	
3351	0	32056	35424	27564	34458	
3352	0	30126	35296	27580	34380	
3353	0	26386	35228	27592	34382	
3354	0	26062	35186	27632	34336	
3355	0	28894	35122	27668	34332	
3356	0	33412	35284	27691	34362	
3357	0	34456	35252	27688	34412	
3358	0	35852	35403	27732	34468	
3359	0	37940	35447	27736	34488	
3360	0	42100	35428	27744	34530	
3361	0	43336	35518	27742	34575	
3362	0	39974	35460	27758	34608	
3363	0	33036	35066	27728	34629	
3364	0	25922	35044	27731	34634	
3365	0	18196	35082	27688	34666	
3366	0	17718	35100	27692	34654	
3367	0	21882	35220	27680	34660	
3368	0	30836	35320	27668	34672	
3369	0	35395	35446	27695	34692	
3370	0	36730	35508	27706	34702	
3371	0	36697	35584	27704	34716	
3372	0	36522	35608	27722	34748	
3373	0	35766	35648	27696	34784	
3374	0	35262	35636	27684	34804	
3375	0	34842	35660	27710	34816	
3376	0	34361	35870	27690	34804	
3377	0	33160	35786	27672	34798	
3378	0	31820	35818	27680	34772	
3379	0	31428	35896	27678	34726	
3380	0	31956	35756	27636	34696	
3381	0	32920	35774	27602	34672	
3382	0	32936	35644	27586	34660	
3383	0	33847	35567	27554	34656	
3384	0	34364	35502	27536	34656	
3385	0	33988	35560	27502	34612	
3386	0	34946	35640	27522	34612	
3387	0	36820	35636	27508	34602	
3388	0	37600	35777	27458	34560	
3389	0	35814	35784	27446	34540	
3390	0	32446	35644	27432	34528	
3391	0	28259	35768	27432	34496	
3392	0	26816	35703	27422	34454	
3393	0	26780	35626	27392	34464	
3394	0	28316	35676	27364	34492	
3395	0	31704	35722	27392	34538	
3396	0	34958	35716	27414	34594	
3397	0	36936	35810	27424	34650	
3398	0	36478	35898	27474	34696	
3399	0	33402	35844	27500	34726	
3400	0	30984	35818	27486	34769	
3401	0	30710	35996	27492	34772	
3402	0	30728	35892	27454	34756	
3403	0	30496	35878	27468	34722	
3404	0	32926	35712	27460	34672	
3405	0	34899	35688	27447	34656	
3406	0	34401	35692	27452	34600	
3407	0	33504	35644	27458	34577	
3408	0	33306	35532	27470	34543	
3409	0	34298	35464	27492	34519	
3410	0	33992	35412	27524	34476	
3411	0	33464	35412	27540	34484	
3412	0	33710	35336	27546	34496	
3413	0	34568	35468	27572	34496	
3414	0	35293	35523	27590	34510	
3415	0	33410	35589	27600	34529	
3416	0	34543	35600	27608	34536	
3417	0	33232	35668	27598	34586	
3418	0	28880	35662	27566	34594	
3419	0	24509	35601	27571	34574	
3420	0	24436	35616	27544	34562	
3421	0	31268	35630	27576	34546	
3422	0	34682	35716	27564	34530	
3423	0	34586	35804	27540	34518	
3424	0	33988	35770	27556	34530	
3425	0	33478	35730	27574	34548	
3426	0	31642	35710	27594	34564	
3427	0	32527	35636	27604	34616	
3428	0	36224	35905	27668	34662	
3429	0	38184	35950	27684	34744	
3430	0	37600	35808	27722	34824	
3431	0	35588	35808	27730	34920	
3432	0	32356	35636	27735	34996	
3433	0	27564	35642	27772	35064	
3434	0	26624	35610	27776	35126	
3435	0	28028	35758	27810	35168	
3436	0	33794	35948	27834	35180	
3437	0	37154	36170	27858	35204	
3438	0	36610	36066	27873	35248	
3439	0	30388	35948	27902	35224	
3440	0	26168	35874	27919	35230	
3441	0	28140	35850	27924	35223	
3442	0	30697	35800	27918	35199	
3443	0	35938	35960	27932	35144	
3444	0	38639	35864	27926	35090	
3445	0	38704	35810	27888	35026	
3446	0	37175	35684	27876	34962	
3447	0	35938	35720	27850	34882	
3448	0	33122	35624	27844	34816	
3449	0	28932	35494	27816	34756	
3450	0	29098	35552	27832	34682	
3451	0	34688	35714	27840	34636	
3452	0	33962	35632	27852	34615	
3453	0	29408	35624	27862	34602	
3454	0	28706	35746	27860	34627	
3455	0	29410	35740	27910	34680	
3456	0	29819	35856	27929	34714	
3457	0	29326	36120	27960	34760	
3458	0	30712	36260	28000	34832	
3459	0	33488	36454	28034	34896	
3460	0	34542	36572	28007	34924	
3461	0	33495	36554	28054	34956	
3462	0	37640	36640	28040	34972	
3463	0	41797	36672	28036	34981	
3464	0	42000	36652	27996	34950	
3465	0	39722	36460	27958	34948	
3466	0	38012	36264	27946	34900	
3467	0	31078	36064	27926	34863	
3468	0	25222	35950	27952	34790	
3469	0	19594	35888	27957	34754	
3470	0	23920	35894	27972	34720	
3471	0	36256	36073	28004	34728	
3472	0	41688	36488	28056	34716	
3473	0	38612	36450	28058	34738	
3474	0	38644	36428	28104	34798	
3475	0	44000	36816	28142	34854	
3476	0	42136	36718	28132	34928	
3477	0	35504	36372	28138	34978	
3478	0	28073	36364	28136	35044	
3479	0	25418	36184	28104	35106	
3480	0	23540	36426	28120	35140	
3481	0	12452	36358	28114	35172	
3482	0	11127	36424	28118	35230	
3483	0	14318	36444	28139	35284	
3484	0	18576	36405	28132	35358	
3485	0	20470	36624	28172	35432	
3486	0	28184	36676	28220	35514	
3487	0	32412	36794	28250	35586	
3488	0	39079	36898	28306	35653	
3489	0	44908	37319	28332	35714	
3490	0	45987	37416	28383	35754	
3491	0	45008	37376	28402	35738	
3492	0	45482	37414	28426	35738	
3493	0	48632	37032	28412	35660	
3494	0	47680	37009	28420	35566	
3495	0	44756	36921	28404	35444	
3496	0	44459	36738	28358	35312	
3497	0	41720	36470	28348	35168	
3498	0	33264	36144	28326	35016	
3499	0	29474	36158	28298	34898	
3500	0	29164	36213	28310	34788	
3501	0	24385	36120	28336	34712	
3502	0	19779	36204	28330	34660	
3503	0	13285	36338	28364	34648	
3504	0	11090	36420	28385	34702	
3505	0	15806	36652	28402	34790	
3506	0	23874	36698	28420	34892	
3507	0	33098	36828	28480	35014	
3508	0	39748	36999	28504	35132	
3509	0	43500	37224	28520	35258	
3510	0	47180	37390	28579	35366	
3511	0	45740	37342	28600	35448	
3512	0	40245	37032	28586	35508	
3513	0	35052	36738	28592	35520	
3514	0	30479	36524	28594	35492	
3515	0	28374	36548	28600	35480	
3516	0	28474	36516	28596	35408	
3517	0	28024	36576	28610	35350	
3518	0	30422	36438	28624	35306	
3519	0	34248	36646	28635	35248	
3520	0	38816	36693	28632	35202	
3521	0	39403	36786	28614	35168	
3522	0	38002	36642	28591	35180	
3523	0	35960	36754	28578	35170	
3524	0	32108	36580	28576	35168	
3525	0	27104	36540	28559	35168	
3526	0	24527	36532	28536	35184	
3527	0	27394	36370	28527	35194	
3528	0	31713	36550	28524	35180	
3529	0	34664	36512	28504	35168	
3530	0	35818	36484	28480	35119	
3531	0	35765	36469	28468	35116	
3532	0	35112	36518	28466	35040	
3533	0	34456	36490	28438	34992	
3534	0	33032	36388	28419	34950	
3535	0	31430	36334	28384	34918	
3536	0	31172	36438	28393	34873	
3537	0	32462	36572	28378	34892	
3538	0	36572	36548	28375	34868	
3539	0	41676	36682	28346	34904	
3540	0	41676	36788	28350	34928	
3541	0	38456	36670	28352	34954	
3542	0	33548	36658	28358	34956	
3543	0	27432	36653	28361	34980	
3544	0	19768	36804	28398	35015	
3545	0	16601	36808	28431	35039	
3546	0	21440	36968	28478	35106	
3547	0	29052	37200	28512	35164	
3548	0	33294	37376	28558	35208	
3549	0	34092	37422	28578	35292	
3550	0	34464	37352	28588	35370	
3551	0	35552	37424	28611	35430	
3552	0	37410	37474	28582	35498	
3553	0	38366	37434	28582	35519	
3554	0	37327	37124	28560	35524	
3555	0	35848	37210	28506	35532	
3556	0	35812	37002	28487	35482	
3557	0	37504	36680	28468	35424	
3558	0	36810	36668	28440	35368	
3559	0	35716	36560	28436	35296	
3560	0	39266	36541	28453	35236	
3561	0	43828	36770	28474	35192	
3562	0	40365	36516	28524	35159	
3563	0	30795	36558	28550	35168	
3564	0	24365	36505	28572	35224	
3565	0	18534	36536	28584	35252	
3566	0	11726	36902	28628	35337	
3567	0	13493	36908	28658	35436	
3568	0	19335	36882	28648	35563	
3569	0	29242	37076	28652	35672	
3570	0	36256	37020	28661	35768	
3571	0	36503	37016	28642	35844	
3572	0	36657	36919	28634	35906	
3573	0	37553	36920	28615	35941	
3574	0	38246	36840	28601	35962	
3575	0	38650	36960	28606	35928	
3576	0	38572	36758	28608	35906	
3577	0	37540	36692	28660	35883	
3578	0	37566	36618	28684	35842	
3579	0	36532	36636	28712	35762	
3580	0	35510	36570	28724	35698	
3581	0	37476	36556	28742	35634	
3582	0	38150	36488	28770	35548	
3583	0	34804	36456	28778	35496	
3584	0	29462	36390	28786	35456	
3585	0	27474	36268	28764	35392	
3586	0	26084	36314	28728	35370	
3587	0	24764	36064	28708	35343	
3588	0	25167	36024	28674	35316	
3589	0	31036	36190	28678	35322	
3590	0	35555	36264	28672	35360	
3591	0	35944	36471	28686	35364	
3592	0	32965	36520	28710	35416	
3593	0	30560	36473	28718	35470	
3594	0	31128	36578	28704	35528	
3595	0	34004	36654	28716	35580	
3596	0	37208	36688	28740	35608	
3597	0	38914	36660	28744	35638	
3598	0	39444	36520	28728	35630	
3599	0	41142	36592	28754	35624	
3600	0	39944	36382	28724	35576	
3601	0	37016	36324	28726	35504	
3602	0	33480	36320	28758	35428	
3603	0	27122	36376	28794	35368	
3604	0	21370	36360	28780	35340	
3605	0	20128	36372	28752	35312	
3606	0	19442	36592	28774	35323	
3607	0	20332	36714	28756	35342	
3608	0	26535	36876	28772	35410	
3609	0	32620	37192	28740	35492	
3610	0	36151	37354	28732	35602	
3611	0	37112	37408	28762	35716	
3612	0	37760	37470	28752	35804	
3613	0	37892	37570	28734	35868	
3614	0	37440	37482	28708	35923	
3615	0	36846	37416	28670	35942	
3616	0	36610	37108	28616	35890	
3617	0	37455	37130	28582	35825	
3618	0	37152	36832	28528	35756	
3619	0	35772	36823	28506	35648	
3620	0	35712	36686	28500	35536	
3621	0	38818	36748	28506	35444	
3622	0	38368	36800	28510	35372	
3623	0	34442	36707	28522	35306	
3624	0	29424	36840	28534	35310	
3625	0	25606	36820	28544	35342	
3626	0	22956	36886	28596	35396	
3627	0	20842	36972	28604	35482	
3628	0	20230	37060	28625	35562	
3629	0	27332	37192	28610	35662	
3630	0	33013	37224	28634	35756	
3631	0	35695	37130	28628	35852	
3632	0	36540	37178	28612	35924	
3633	0	36916	37158	28588	35956	
3634	0	37128	37152	28597	35956	
3635	0	36306	37128	28590	35952	
3636	0	35830	36762	28578	35934	
3637	0	36883	36867	28607	35863	
3638	0	37638	36848	28616	35800	
3639	0	38296	36656	28642	35724	
3640	0	36658	36504	28668	35656	
3641	0	35247	36490	28701	35598	
3642	0	33532	36254	28716	35542	
3643	0	29784	36096	28722	35508	
3644	0	26224	36220	28744	35478	
3645	0	25504	36378	28774	35480	
3646	0	28704	36560	28818	35532	
3647	0	28660	36668	28806	35580	
3648	0	27040	36736	28816	35650	
3649	0	29476	36846	28808	35738	
3650	0	34480	36855	28808	35786	
3651	0	36852	36872	28836	35848	
3652	0	35968	36928	28826	35888	
3653	0	33540	36835	28824	35896	
3654	0	32656	36740	28836	35908	
3655	0	31794	36636	28836	35908	
3656	0	33504	36548	28886	35906	
3657	0	32724	36482	28945	35900	
3658	0	31912	36500	28951	35912	
3659	0	32695	36466	28977	35932	
3660	0	34576	36652	28990	35972	
3661	0	37141	36614	28989	36018	
3662	0	42716	36928	29005	36012	
3663	0	42210	36956	29004	36014	
3664	0	38254	36824	28998	36020	
3665	0	33988	36752	28960	35996	
3666	0	28356	36804	28936	35976	
3667	0	19632	36684	28924	35944	
3668	0	17576	36846	28938	35900	
3669	0	19504	36896	28948	35896	
3670	0	26502	37124	28960	35878	
3671	0	33140	37028	28952	35884	
3672	0	36584	37328	28978	35893	
3673	0	37380	37152	28994	35904	
3674	0	36904	37108	29004	35950	
3675	0	36288	37080	28998	35998	
3676	0	35898	37136	28996	36046	
3677	0	38736	37018	29016	36081	
3678	0	39844	37098	29006	36143	
3679	0	38490	36892	29024	36184	
3680	0	35370	36778	29008	36212	
3681	0	31724	36828	29020	36202	
3682	0	29420	36640	29040	36206	
3683	0	29492	36736	29040	36192	
3684	0	29644	36680	29034	36188	
3685	0	33044	36880	29042	36140	
3686	0	35335	37002	29072	36104	
3687	0	34218	37220	29054	36092	
3688	0	29484	37318	29058	36046	
3689	0	26948	37342	29044	36004	
3690	0	26978	37429	29066	35980	
3691	0	30099	37648	29056	35964	
3692	0	30844	37506	29032	35926	
3693	0	30674	37534	29014	35952	
3694	0	31323	37432	28991	35934	
3695	0	33632	37462	28996	35902	
3696	0	35378	37484	28996	35922	
3697	0	36069	37424	28990	35934	
3698	0	35352	37344	28976	35929	
3699	0	34524	37224	28976	35928	
3700	0	34958	37226	28986	35954	
3701	0	33900	37256	28990	35956	
3702	0	30924	37044	29018	35968	
3703	0	28318	36886	29037	35974	
3704	0	29796	37028	29057	35954	
3705	0	33032	36896	29086	35898	
3706	0	35390	36980	29120	35894	
3707	0	36463	36912	29122	35842	
3708	0	36584	37012	29132	35794	
3709	0	34996	36919	29154	35778	
3710	0	33666	36896	29158	35744	
3711	0	32656	36922	29176	35726	
3712	0	33376	36952	29180	35694	
3713	0	36869	37141	29168	35694	
3714	0	40578	37216	29200	35656	
3715	0	39274	37280	29208	35684	
3716	0	38536	37246	29202	35696	
3717	0	35726	37186	29203	35733	
3718	0	28570	37024	29208	35802	
3719	0	22028	36805	29209	35873	
3720	0	20546	36932	29236	35942	
3721	0	23870	36886	29272	36034	
3722	0	25010	36900	29328	36140	
3723	0	23500	37072	29396	36236	
3724	0	24792	37000	29447	36316	
3725	0	30322	37102	29470	36414	
3726	0	36336	37136	29518	36476	
3727	0	41506	37204	29556	36560	
3728	0	47620	37504	29605	36608	
3729	0	48598	37268	29576	36642	
3730	0	43820	37274	29582	36643	
3731	0	37919	36964	29596	36618	
3732	0	32156	36736	29543	36582	
3733	0	25550	36726	29511	36533	
3734	0	18120	36912	29476	36508	
3735	0	16998	36954	29444	36437	
3736	0	21536	36984	29420	36400	
3737	0	29870	37186	29408	36364	
3738	0	34052	37220	29400	36336	
3739	0	34476	37352	29386	36316	
3740	0	35060	37314	29369	36312	
3741	0	37076	37364	29328	36340	
3742	0	46228	37680	29345	36322	
3743	0	51356	37490	29358	36321	
3744	0	48323	37708	29338	36348	
3745	0	41359	37400	29308	36360	
3746	0	32386	37260	29302	36365	
3747	0	19912	37012	29299	36370	
3748	0	12092	36964	29316	36391	
3749	0	8792	36900	29308	36400	
3750	0	17145	36870	29318	36408	
3751	0	27682	36879	29356	36422	
3752	0	36164	36852	29344	36424	
3753	0	39476	37186	29370	36470	
3754	0	40160	37222	29398	36498	
3755	0	38720	37315	29390	36508	
3756	0	36415	37626	29452	36528	
