# OpenSignals Text File Format. Version 1
# {"00:07:80:0F:2F:AD": {"position": 0, "device": "biosignalsplux", "device name": "00:07:80:0F:2F:AD", "device connection": "BTH00:07:80:0F:2F:AD", "sampling rate": 300, "resolution": [16, 16, 16, 16], "firmware version": 776, "comments": "", "keywords": "", "mode": 0, "sync interval": 2, "date": "2024-1-15", "time": "16:46:15.543", "channels": [1, 5, 6, 7], "sensor": ["ECG", "XYZ", "XYZ", "XYZ"], "label": ["CH1", "CH5", "CH6", "CH7"], "column": ["nSeq", "DI", "CH1", "CH5", "CH6", "CH7"], "special": [{"SpO2": [80, 40, 5, 4, 3, 3]}, {"SpO2": [80, 40, 5, 4, 3, 3]}, {"SpO2": [80, 40, 5, 4, 3, 3]}, {"SpO2": [80, 40, 5, 4, 3, 3]}, {"SpO2": [80, 40, 5, 4, 3, 3]}, {"SpO2": [80, 40, 5, 4, 3, 3]}, {"SpO2": [80, 40, 5, 4, 3, 3]}, {"SpO2": [80, 40, 5, 4, 3, 3]}], "digital IO": [0, 1], "sleeve color": ["light_green", "white", "white", "white"], "convertedValues": 0}}
# EndOfHeader
0	0	33152	36010	27132	31964	
1	0	33152	36020	27156	31987	
2	0	33104	36048	27172	31970	
3	0	33130	36024	27162	31968	
4	0	33162	36182	27200	31964	
5	0	33196	35994	27138	31992	
6	0	33236	36150	27156	31980	
7	0	33242	36128	27160	31962	
8	0	33174	36124	27176	31972	
9	0	33112	36086	27166	31988	
10	0	33093	36078	27154	31976	
11	0	33112	36060	27170	31967	
12	0	33106	36068	27140	32008	
13	0	33154	36047	27160	31984	
14	0	33178	36128	27158	31972	
15	0	33202	36172	27176	31986	
16	0	33156	36101	27170	31984	
17	0	33148	36018	27161	31990	
18	0	33054	36092	27186	31980	
19	0	33060	36064	27181	31954	
20	0	33072	36028	27180	31970	
21	0	33082	36021	27183	31964	
22	0	33060	36082	27190	31977	
23	0	33022	36158	27162	31980	
24	0	33060	36056	27168	31984	
25	0	33104	36064	27150	31980	
26	0	33080	35972	27186	31984	
27	0	33068	36074	27172	31964	
28	0	33130	36013	27152	31976	
29	0	33152	36024	27179	31944	
30	0	33120	36146	27158	31988	
31	0	33080	36012	27168	31992	
32	0	33152	36058	27194	32000	
33	0	33188	36007	27178	31992	
34	0	33176	36110	27190	32000	
35	0	33184	36024	27196	31976	
36	0	33180	35984	27180	31996	
37	0	33160	36007	27196	31993	
38	0	33168	36085	27172	31970	
39	0	33126	36010	27184	31968	
40	0	33154	36116	27181	31998	
41	0	33152	35968	27196	31988	
42	0	33080	36100	27200	31984	
43	0	33066	35952	27173	31984	
44	0	33073	35994	27172	31977	
45	0	33087	35984	27182	31970	
46	0	33082	35912	27188	31978	
47	0	33052	36096	27180	31980	
48	0	33024	36090	27200	31986	
49	0	33036	36142	27180	32004	
50	0	32991	36124	27159	31992	
51	0	32898	36138	27186	31982	
52	0	32942	36120	27164	32004	
53	0	32984	36068	27188	31984	
54	0	33023	36156	27170	31988	
55	0	33040	36058	27168	31988	
56	0	33040	35978	27152	31988	
57	0	33120	36089	27154	31982	
58	0	33148	36090	27162	32012	
59	0	33142	35924	27138	31978	
60	0	33130	36040	27168	31972	
61	0	33015	36168	27152	31984	
62	0	33057	36008	27124	31968	
63	0	33170	35974	27124	31974	
64	0	33132	36234	27136	31980	
65	0	33121	36140	27148	31976	
66	0	33100	36124	27116	31968	
67	0	33146	36028	27144	31984	
68	0	33120	36138	27130	31974	
69	0	33112	36018	27136	32008	
70	0	33145	36114	27140	31976	
71	0	33208	36032	27136	31964	
72	0	33196	35996	27149	31963	
73	0	33189	36048	27125	31970	
74	0	33160	36022	27124	31970	
75	0	33145	36024	27130	31976	
76	0	33152	35988	27145	31996	
77	0	33194	35904	27133	31976	
78	0	33190	36128	27148	32002	
79	0	33120	36056	27176	31996	
80	0	32806	36084	27156	31980	
81	0	32177	36150	27128	31971	
82	0	31724	35958	27168	31972	
83	0	31882	36084	27152	31968	
84	0	32078	36000	27182	31990	
85	0	33000	36116	27160	31984	
86	0	35202	36104	27176	31984	
87	0	38108	36226	27140	32000	
88	0	42060	36394	27176	31988	
89	0	45814	36396	27188	31980	
90	0	49300	36124	27170	31970	
91	0	49932	36054	27184	31984	
92	0	44023	36464	27180	31982	
93	0	36666	36132	27151	31994	
94	0	34264	36214	27182	32000	
95	0	35260	36230	27148	31994	
96	0	34772	36240	27162	31966	
97	0	33872	36197	27154	31976	
98	0	32984	36338	27138	31948	
99	0	32259	36162	27140	31956	
100	0	31785	35932	27114	31972	
101	0	31456	35916	27100	31994	
102	0	31258	35898	27116	31994	
103	0	31132	36042	27120	32012	
104	0	31010	36096	27150	31992	
105	0	30936	36122	27151	32000	
106	0	30976	35840	27172	31996	
107	0	30978	35926	27170	31960	
108	0	31046	36032	27177	31988	
109	0	31138	36093	27240	32004	
110	0	31135	36012	27234	32004	
111	0	31174	36134	27276	31982	
112	0	31208	36020	27242	31997	
113	0	31212	36020	27233	31992	
114	0	31200	36056	27179	31980	
115	0	31226	35932	27144	31950	
116	0	31256	36104	27118	31920	
117	0	31242	36246	27137	31936	
118	0	31271	36104	27106	31918	
119	0	31320	36085	27086	31928	
120	0	31346	36104	27102	31944	
121	0	31420	36052	27112	31966	
122	0	31452	35990	27108	31992	
123	0	31480	36098	27090	31996	
124	0	31520	36100	27094	31992	
125	0	31554	36104	27114	32020	
126	0	31546	35956	27116	32010	
127	0	31590	36046	27128	31978	
128	0	31608	35962	27136	31992	
129	0	31660	35944	27104	31996	
130	0	31642	36020	27124	31988	
131	0	31648	35928	27122	31972	
132	0	31652	35911	27120	31968	
133	0	31648	36046	27116	31943	
134	0	31656	36136	27102	31940	
135	0	31640	36024	27106	31960	
136	0	31664	35932	27104	31964	
137	0	31636	36104	27134	31962	
138	0	31649	35998	27128	31958	
139	0	31682	35955	27124	31950	
140	0	31704	35910	27142	31966	
141	0	31768	35980	27152	32002	
142	0	31768	36044	27148	31996	
143	0	31778	35980	27121	31992	
144	0	31736	35990	27100	31992	
145	0	31680	35994	27130	31988	
146	0	31688	35932	27113	32012	
147	0	31662	36106	27144	32004	
148	0	31612	35914	27136	32008	
149	0	31570	36129	27160	31996	
150	0	31568	36056	27168	31998	
151	0	31541	36068	27176	31996	
152	0	31554	36068	27169	31983	
153	0	31560	35956	27168	31984	
154	0	31564	36098	27148	31992	
155	0	31510	36049	27162	32012	
156	0	31594	36064	27163	31976	
157	0	31616	36040	27154	31976	
158	0	31614	36040	27174	31956	
159	0	31650	36116	27186	31984	
160	0	31706	36173	27154	31986	
161	0	31728	35956	27124	31960	
162	0	31820	36148	27154	31984	
163	0	31862	36048	27108	31940	
164	0	31896	36026	27160	31988	
165	0	31892	36104	27140	31976	
166	0	31962	36046	27134	31976	
167	0	32070	36038	27142	31966	
168	0	32144	36170	27146	31956	
169	0	32234	36060	27138	31984	
170	0	32326	36162	27116	31959	
171	0	32412	36228	27166	31970	
172	0	32532	36100	27128	31976	
173	0	32622	36096	27124	31994	
174	0	32688	36148	27102	31973	
175	0	32742	36120	27148	31970	
176	0	32760	36020	27130	31954	
177	0	32768	36076	27132	31960	
178	0	32784	36116	27164	31964	
179	0	32804	35920	27144	32000	
180	0	32816	36064	27158	31977	
181	0	32808	35950	27156	31968	
182	0	32866	35992	27150	31984	
183	0	32914	36070	27190	31970	
184	0	32966	36179	27164	31990	
185	0	32990	36209	27176	31990	
186	0	33036	36204	27152	31992	
187	0	33070	36156	27144	31996	
188	0	33070	36122	27132	31976	
189	0	33098	36152	27116	31950	
190	0	33069	36128	27164	31940	
191	0	33124	36052	27156	31960	
192	0	33150	36158	27136	31980	
193	0	33124	36098	27160	31992	
194	0	33150	36008	27164	31990	
195	0	33128	35948	27120	31989	
196	0	33154	36178	27154	31952	
197	0	33146	36032	27142	31968	
198	0	33184	36008	27150	31970	
199	0	33194	36120	27134	31960	
200	0	33160	36138	27120	31962	
201	0	33152	36042	27156	31980	
202	0	33214	36151	27139	31966	
203	0	33210	36084	27120	31956	
204	0	33248	36110	27124	31934	
205	0	33296	36126	27119	31936	
206	0	33300	36152	27109	31982	
207	0	33302	36064	27118	31976	
208	0	33354	36008	27116	31976	
209	0	33346	36084	27140	32010	
210	0	33328	36000	27118	32004	
211	0	33328	36000	27142	31988	
212	0	33354	36040	27136	31989	
213	0	33364	36020	27168	31960	
214	0	33352	36166	27152	31954	
215	0	33390	36084	27162	31968	
216	0	33342	36224	27118	31934	
217	0	33354	36066	27124	31932	
218	0	33318	36076	27120	31944	
219	0	33300	36188	27136	31968	
220	0	33302	35986	27129	31938	
221	0	33272	36022	27144	31954	
222	0	33294	36132	27156	31970	
223	0	33296	36020	27136	31966	
224	0	33320	36080	27112	31958	
225	0	33336	36060	27128	31958	
226	0	33340	36050	27140	31996	
227	0	33332	36162	27136	31976	
228	0	33332	36116	27152	31983	
229	0	33346	36172	27108	31950	
230	0	33322	36092	27124	31946	
231	0	33264	35976	27124	31946	
232	0	33264	36044	27132	31954	
233	0	33212	35970	27128	31960	
234	0	33206	35976	27144	31956	
235	0	33192	36064	27125	31964	
236	0	33182	36084	27148	31967	
237	0	33216	36148	27138	31954	
238	0	33246	36100	27152	31960	
239	0	33242	36088	27128	31952	
240	0	33262	36204	27106	31944	
241	0	33280	36106	27144	31938	
242	0	33280	36008	27134	31920	
243	0	33272	36132	27148	31952	
244	0	33280	36042	27144	31942	
245	0	33282	36064	27138	31960	
246	0	33312	35970	27154	31952	
247	0	33298	36096	27121	31952	
248	0	33288	36075	27140	31956	
249	0	33240	36044	27120	31968	
250	0	33244	36037	27152	31954	
251	0	33218	36030	27140	31952	
252	0	33222	36042	27122	31942	
253	0	33230	36106	27145	31957	
254	0	33218	36168	27138	31968	
255	0	33186	36096	27136	31962	
256	0	33228	36006	27150	31948	
257	0	33256	36076	27137	31924	
258	0	33256	36068	27114	31966	
259	0	33240	36160	27122	31968	
260	0	33188	36114	27126	31968	
261	0	33174	35934	27154	31964	
262	0	33166	36148	27098	31950	
263	0	33156	36122	27144	31978	
264	0	33156	36064	27130	31970	
265	0	33130	36092	27136	31986	
266	0	33144	36098	27124	31964	
267	0	33092	35992	27160	31964	
268	0	33088	36105	27126	31952	
269	0	33088	36004	27122	31952	
270	0	33090	36108	27108	31964	
271	0	33098	36032	27140	31972	
272	0	33136	36136	27129	31960	
273	0	33064	36092	27128	31976	
274	0	33056	36090	27108	31950	
275	0	33044	36080	27122	31950	
276	0	33012	36084	27148	31980	
277	0	32908	36045	27134	31936	
278	0	32832	36142	27120	31962	
279	0	32862	36016	27134	31978	
280	0	32816	36100	27104	31976	
281	0	32790	35938	27129	31938	
282	0	32764	36128	27114	31950	
283	0	32772	36146	27118	31968	
284	0	32825	36046	27112	31968	
285	0	32916	36082	27120	31960	
286	0	32956	36096	27104	31954	
287	0	33042	36022	27112	31956	
288	0	33042	36156	27130	31950	
289	0	33099	36024	27120	31962	
290	0	33112	36089	27132	31952	
291	0	33114	36101	27120	31940	
292	0	33110	36026	27108	31968	
293	0	33046	36040	27096	31958	
294	0	33014	36104	27118	31960	
295	0	33038	36040	27109	31945	
296	0	33084	35963	27104	31944	
297	0	33068	36056	27144	31948	
298	0	33040	35982	27128	31946	
299	0	33010	35956	27138	31954	
300	0	32980	35996	27130	31962	
301	0	32962	36031	27130	31952	
302	0	32948	35982	27110	31960	
303	0	32944	36024	27124	31950	
304	0	32992	35968	27112	31966	
305	0	32996	36072	27152	31964	
306	0	32936	36055	27135	31940	
307	0	32998	36088	27140	31944	
308	0	32980	35936	27124	31952	
309	0	32780	35844	27140	31980	
310	0	32212	35946	27139	31952	
311	0	31700	36032	27117	31952	
312	0	31516	35994	27124	31916	
313	0	31477	36042	27122	31938	
314	0	31832	35944	27140	31944	
315	0	33542	35992	27142	31938	
316	0	36546	36196	27136	31956	
317	0	40692	36228	27128	31923	
318	0	44568	36303	27146	31906	
319	0	47570	36162	27154	31906	
320	0	49012	36248	27126	31916	
321	0	44822	36300	27130	31944	
322	0	38960	36236	27128	31944	
323	0	34886	36036	27119	31928	
324	0	35724	36184	27104	31918	
325	0	34854	36144	27105	31876	
326	0	33627	36288	27080	31946	
327	0	32586	36088	27120	31928	
328	0	31796	35988	27096	31940	
329	0	31292	35904	27086	31952	
330	0	30946	36003	27074	31954	
331	0	30752	36046	27140	31972	
332	0	30640	36114	27168	31952	
333	0	30656	36076	27172	31936	
334	0	30628	36068	27180	31944	
335	0	30640	35812	27136	31932	
336	0	30632	35928	27164	31926	
337	0	30666	36014	27197	31948	
338	0	30692	36044	27204	31956	
339	0	30726	36108	27202	31958	
340	0	30814	36074	27176	31972	
341	0	30884	36094	27144	31964	
342	0	30938	36128	27154	31981	
343	0	30994	36072	27112	31944	
344	0	31012	36072	27090	31972	
345	0	31059	36046	27084	31964	
346	0	31060	36022	27056	31952	
347	0	31116	36072	27088	31938	
348	0	31108	36090	27074	31946	
349	0	31156	36040	27084	31978	
350	0	31218	36044	27146	31956	
351	0	31264	36018	27156	31944	
352	0	31234	36084	27138	31952	
353	0	31232	36116	27136	31955	
354	0	31294	35996	27124	31954	
355	0	31340	35950	27140	31956	
356	0	31316	36074	27156	31962	
357	0	31341	36041	27128	31944	
358	0	31390	36044	27136	31970	
359	0	31422	36014	27114	31968	
360	0	31418	36052	27100	31976	
361	0	31428	36018	27100	31964	
362	0	31462	36038	27090	31976	
363	0	31468	36068	27104	31956	
364	0	31480	35974	27084	31936	
365	0	31494	35960	27086	31944	
366	0	31528	36000	27118	31916	
367	0	31512	35944	27082	31942	
368	0	31472	35990	27094	31920	
369	0	31536	36000	27094	31921	
370	0	31510	36136	27105	31927	
371	0	31536	35948	27108	31928	
372	0	31520	35946	27098	31942	
373	0	31464	35962	27096	31938	
374	0	31492	35926	27096	31924	
375	0	31527	35940	27102	31936	
376	0	31518	35986	27093	31950	
377	0	31496	36096	27096	31966	
378	0	31462	35972	27114	31964	
379	0	31476	36040	27112	31932	
380	0	31456	35932	27130	31936	
381	0	31431	35932	27104	31956	
382	0	31442	36076	27136	31976	
383	0	31450	36038	27124	31916	
384	0	31440	35912	27148	31934	
385	0	31452	35952	27124	31952	
386	0	31494	35904	27152	31948	
387	0	31520	35952	27142	31970	
388	0	31530	36098	27140	31954	
389	0	31562	36064	27154	31959	
390	0	31588	36027	27130	31952	
391	0	31622	36072	27120	31950	
392	0	31645	36094	27150	31944	
393	0	31708	36108	27136	31960	
394	0	31736	36056	27141	31958	
395	0	31824	36027	27135	31948	
396	0	31860	36005	27127	31958	
397	0	31914	36104	27142	31952	
398	0	31956	35972	27102	31948	
399	0	32084	36064	27136	31934	
400	0	32174	36110	27140	31954	
401	0	32308	36010	27136	31956	
402	0	32420	35994	27136	31960	
403	0	32576	36148	27140	31946	
404	0	32624	36028	27104	31953	
405	0	32753	35998	27098	31940	
406	0	32818	36016	27096	31942	
407	0	32852	35924	27120	31932	
408	0	32972	36012	27110	31942	
409	0	33032	36076	27126	31926	
410	0	33094	36078	27130	31938	
411	0	33144	36010	27120	31930	
412	0	33112	35998	27107	31928	
413	0	33112	35980	27101	31928	
414	0	33157	36012	27112	31944	
415	0	33192	36156	27129	31922	
416	0	33140	36100	27115	31940	
417	0	33128	36064	27095	31978	
418	0	33096	36106	27116	31974	
419	0	33076	36020	27096	31940	
420	0	33112	36014	27112	31956	
421	0	33114	35928	27080	31936	
422	0	33124	35964	27104	31948	
423	0	33142	35940	27120	31948	
424	0	33142	35960	27156	31952	
425	0	33138	36086	27121	31972	
426	0	33192	36064	27124	31936	
427	0	33248	35964	27120	31970	
428	0	33222	36048	27140	31928	
429	0	33232	35978	27136	31934	
430	0	33284	36072	27136	31940	
431	0	33272	35974	27144	31928	
432	0	33318	35996	27132	31924	
433	0	33272	36112	27136	31934	
434	0	33362	36032	27097	31930	
435	0	33363	36136	27103	31936	
436	0	33388	36072	27078	31950	
437	0	33388	35876	27105	31944	
438	0	33384	36020	27104	31952	
439	0	33446	35982	27094	31932	
440	0	33426	35976	27102	31945	
441	0	33428	36092	27124	31936	
442	0	33428	36064	27086	31954	
443	0	33380	36018	27106	31968	
444	0	33408	36076	27108	31962	
445	0	33368	36016	27094	31946	
446	0	33358	35932	27120	31934	
447	0	33334	35996	27104	31950	
448	0	33318	35944	27089	31928	
449	0	33336	35888	27104	31935	
450	0	33360	35920	27094	31944	
451	0	33328	35996	27132	31916	
452	0	33310	35992	27102	31914	
453	0	33360	36052	27104	31944	
454	0	33362	35946	27086	31926	
455	0	33344	36026	27090	31936	
456	0	33358	36042	27104	31918	
457	0	33344	36029	27115	31940	
458	0	33326	36064	27118	31916	
459	0	33330	35948	27104	31912	
460	0	33316	36100	27122	31926	
461	0	33226	35988	27094	31944	
462	0	33206	35924	27107	31942	
463	0	33176	36040	27122	31952	
464	0	33124	36002	27100	31924	
465	0	33058	36024	27098	31925	
466	0	33066	36036	27108	31936	
467	0	33052	35972	27134	31932	
468	0	33044	36031	27084	31968	
469	0	33030	36112	27122	31932	
470	0	33012	36028	27118	31976	
471	0	33026	36100	27118	31938	
472	0	33080	36128	27148	31972	
473	0	32996	36073	27122	31936	
474	0	32990	35972	27143	31934	
475	0	32960	36046	27136	31963	
476	0	32988	36068	27120	31934	
477	0	32980	36156	27124	31928	
478	0	32978	35975	27128	31914	
479	0	32942	36042	27122	31906	
480	0	32942	36141	27108	31944	
481	0	32962	36098	27126	31936	
482	0	32906	36024	27120	31934	
483	0	32908	36036	27131	31920	
484	0	32912	36046	27120	31944	
485	0	32920	36068	27126	31941	
486	0	32912	36060	27114	31932	
487	0	32914	36088	27112	31942	
488	0	32890	36014	27112	31948	
489	0	32920	36056	27125	31954	
490	0	32918	36032	27098	31976	
491	0	32914	36090	27108	31940	
492	0	32890	36167	27104	31939	
493	0	32888	36046	27116	31934	
494	0	32912	36032	27116	31932	
495	0	32966	36008	27140	31930	
496	0	32972	36162	27156	31951	
497	0	32964	36068	27144	31912	
498	0	32948	36010	27138	31938	
499	0	32976	36066	27118	31916	
500	0	32938	36014	27119	31924	
501	0	32960	36000	27116	31924	
502	0	32922	35920	27136	31921	
503	0	32921	36084	27108	31944	
504	0	32914	36028	27112	31920	
505	0	32910	36002	27120	31936	
506	0	32876	36178	27118	31956	
507	0	32884	35942	27129	31942	
508	0	32884	36024	27124	31928	
509	0	32842	36020	27144	31948	
510	0	32794	35984	27138	31932	
511	0	32782	36148	27112	31930	
512	0	32792	36102	27108	31916	
513	0	32756	36044	27115	31912	
514	0	32740	36080	27117	31945	
515	0	32736	36132	27118	31912	
516	0	32754	36062	27132	31944	
517	0	32701	35978	27124	31914	
518	0	32782	35876	27098	31941	
519	0	32748	36028	27094	31932	
520	0	32736	36026	27112	31922	
521	0	32680	36002	27124	31948	
522	0	32716	36016	27100	31936	
523	0	32748	36052	27136	31950	
524	0	32686	36084	27112	31926	
525	0	32680	36094	27106	31932	
526	0	32678	36082	27106	31930	
527	0	32678	35940	27130	31906	
528	0	32714	36064	27127	31896	
529	0	32682	36068	27104	31928	
530	0	32662	36112	27096	31965	
531	0	32720	36076	27104	31946	
532	0	32720	35992	27100	31936	
533	0	32700	36046	27116	31925	
534	0	32729	36018	27128	31917	
535	0	32710	35990	27114	31932	
536	0	32738	36092	27120	31908	
537	0	32766	35988	27088	31924	
538	0	32784	36000	27117	31925	
539	0	32809	36190	27130	31918	
540	0	32904	36086	27120	31912	
541	0	32944	36172	27104	31914	
542	0	32922	36016	27125	31930	
543	0	32886	36100	27122	31912	
544	0	32896	36065	27098	31924	
545	0	32904	36052	27124	31918	
546	0	32874	36116	27122	31932	
547	0	32836	35968	27105	31936	
548	0	32844	36080	27124	31916	
549	0	32866	36075	27116	31936	
550	0	32864	36017	27104	31932	
551	0	32848	36086	27112	31920	
552	0	32860	36006	27104	31936	
553	0	32816	35962	27120	31960	
554	0	32790	36040	27128	31946	
555	0	32776	36044	27140	31939	
556	0	32786	36012	27112	31943	
557	0	32740	36126	27134	31934	
558	0	32518	36092	27122	31920	
559	0	31968	36040	27132	31926	
560	0	31482	35936	27104	31940	
561	0	31488	36060	27124	31928	
562	0	31459	36024	27116	31942	
563	0	32044	36000	27086	31912	
564	0	33874	36116	27107	31948	
565	0	36776	36194	27124	31916	
566	0	40752	36344	27132	31908	
567	0	44076	36344	27125	31918	
568	0	46736	36206	27112	31930	
569	0	47526	36200	27140	31940	
570	0	43206	36352	27122	31900	
571	0	37752	36196	27100	31917	
572	0	34726	36026	27096	31924	
573	0	35506	36120	27080	31919	
574	0	34516	36130	27088	31907	
575	0	33351	36108	27073	31936	
576	0	32346	36062	27078	31938	
577	0	31630	35899	27078	31954	
578	0	31120	35928	27084	31945	
579	0	30848	36058	27102	31964	
580	0	30648	35964	27132	31960	
581	0	30566	36056	27172	31936	
582	0	30546	35992	27168	31920	
583	0	30524	35920	27130	31904	
584	0	30536	35824	27116	31896	
585	0	30567	35968	27150	31920	
586	0	30552	36068	27191	31910	
587	0	30608	36076	27194	31944	
588	0	30674	35972	27190	31942	
589	0	30704	36008	27152	31962	
590	0	30706	36098	27140	31946	
591	0	30785	35994	27104	31926	
592	0	30828	36084	27090	31926	
593	0	30812	36016	27086	31911	
594	0	30800	36024	27064	31946	
595	0	30848	36013	27060	31948	
596	0	30897	36093	27050	31916	
597	0	30910	35988	27076	31942	
598	0	30976	36168	27088	31954	
599	0	31032	35982	27128	31936	
600	0	31046	36056	27126	31953	
601	0	31066	36132	27160	31908	
602	0	31059	36000	27138	31912	
603	0	31032	35944	27136	31902	
604	0	31016	36024	27128	31908	
605	0	31096	36098	27098	31914	
606	0	31156	35972	27105	31904	
607	0	31152	35850	27110	31928	
608	0	31168	36024	27100	31932	
609	0	31180	36020	27096	31948	
610	0	31192	35958	27084	31918	
611	0	31193	36068	27082	31958	
612	0	31200	35945	27092	31920	
613	0	31194	35950	27086	31916	
614	0	31138	36018	27084	31888	
615	0	31138	36014	27084	31918	
616	0	31156	35906	27082	31898	
617	0	31196	36020	27078	31906	
618	0	31244	35888	27056	31912	
619	0	31210	35912	27065	31906	
620	0	31170	35818	27068	31938	
621	0	31170	36058	27061	31925	
622	0	31176	36036	27076	31942	
623	0	31180	35968	27076	31944	
624	0	31162	36016	27082	31960	
625	0	31124	35950	27106	31936	
626	0	31112	36034	27104	31938	
627	0	31114	35913	27124	31956	
628	0	31098	35954	27128	31964	
629	0	31096	36064	27122	31944	
630	0	31078	36015	27132	31938	
631	0	31046	35992	27114	31966	
632	0	31072	36018	27130	31936	
633	0	31060	35968	27136	31961	
634	0	31036	35962	27136	31982	
635	0	31044	35860	27129	31956	
636	0	31042	35924	27152	31936	
637	0	31072	36012	27140	31928	
638	0	31088	36020	27146	31946	
639	0	31086	35980	27124	31968	
640	0	31020	35932	27146	31932	
641	0	31014	36108	27136	31938	
642	0	31086	36209	27139	31932	
643	0	31134	35954	27116	31945	
644	0	31174	35992	27120	31924	
645	0	31232	35968	27127	31912	
646	0	31268	36052	27154	31924	
647	0	31306	36089	27124	31930	
648	0	31416	35976	27130	31924	
649	0	31550	36070	27136	31930	
650	0	31630	36088	27096	31924	
651	0	31794	35892	27104	31952	
652	0	31912	36054	27113	31924	
653	0	32050	36110	27120	31956	
654	0	32178	36004	27136	31922	
655	0	32208	35980	27107	31935	
656	0	32286	35956	27096	31951	
657	0	32380	36016	27102	31944	
658	0	32488	36136	27110	31924	
659	0	32576	35940	27101	31940	
660	0	32646	35944	27106	31940	
661	0	32654	35896	27120	31938	
662	0	32714	35932	27108	31944	
663	0	32684	35938	27098	31952	
664	0	32698	36108	27100	31958	
665	0	32726	36074	27098	31928	
666	0	32744	36012	27118	31944	
667	0	32708	36059	27128	31946	
668	0	32652	35844	27102	31948	
669	0	32668	35980	27142	31960	
670	0	32688	35994	27104	31944	
671	0	32660	35977	27101	31932	
672	0	32688	35925	27122	31938	
673	0	32750	36053	27112	31948	
674	0	32804	35945	27080	31944	
675	0	32759	36058	27113	31948	
676	0	32684	35892	27148	31968	
677	0	32698	36066	27121	31920	
678	0	32722	35888	27138	31932	
679	0	32674	36016	27138	31930	
680	0	32698	35986	27121	31920	
681	0	32762	35984	27136	31910	
682	0	32800	35988	27122	31923	
683	0	32828	36078	27124	31944	
684	0	32812	36032	27136	31951	
685	0	32720	36056	27094	31938	
686	0	32728	36130	27120	31936	
687	0	32792	35964	27102	31956	
688	0	32852	36162	27105	31948	
689	0	32904	35947	27102	31984	
690	0	32930	36070	27111	31960	
691	0	32875	35984	27132	31950	
692	0	32884	36006	27132	31920	
693	0	32888	35960	27100	31960	
694	0	32884	35944	27108	31938	
695	0	32902	36072	27124	31944	
696	0	32972	35970	27114	31936	
697	0	32968	35916	27104	31944	
698	0	32921	35982	27104	31944	
699	0	32932	36004	27090	31920	
700	0	32918	36020	27108	31949	
701	0	32938	36002	27102	31928	
702	0	32977	36089	27124	31920	
703	0	33000	35992	27107	31928	
704	0	32960	36087	27118	31914	
705	0	32926	36060	27110	31940	
706	0	32896	36029	27108	31936	
707	0	32946	36042	27119	31919	
708	0	32984	36060	27120	31948	
709	0	32952	35960	27127	31960	
710	0	32920	35996	27134	31930	
711	0	32942	36126	27136	31944	
712	0	32962	36024	27140	31928	
713	0	32988	36186	27117	31945	
714	0	33018	36028	27128	31940	
715	0	32990	36016	27140	31948	
716	0	32992	35950	27144	31960	
717	0	32943	35936	27152	31962	
718	0	32968	36116	27144	31944	
719	0	32940	35928	27144	31944	
720	0	32916	36074	27124	31946	
721	0	32902	36108	27162	31948	
722	0	32912	36020	27146	31974	
723	0	32958	36024	27157	31974	
724	0	32926	36078	27164	31964	
725	0	32874	36049	27158	31934	
726	0	32896	36128	27128	31932	
727	0	32944	36076	27138	31946	
728	0	32942	36044	27136	31954	
729	0	32980	36082	27156	31922	
730	0	32980	36058	27129	31919	
731	0	32958	36052	27146	31956	
732	0	32968	36126	27116	31920	
733	0	32924	35944	27152	31924	
734	0	32944	36108	27128	31928	
735	0	32989	36000	27134	31936	
736	0	33066	36058	27117	31948	
737	0	33060	36106	27112	31950	
738	0	33064	36110	27118	31936	
739	0	33038	36164	27096	31964	
740	0	32992	35990	27098	31943	
741	0	32986	36104	27132	31948	
742	0	33008	35942	27140	31966	
743	0	33066	36118	27146	31940	
744	0	33041	35968	27154	31944	
745	0	32996	35978	27147	31959	
746	0	33040	36136	27124	31940	
747	0	32998	36042	27136	31951	
748	0	32972	36020	27150	31944	
749	0	32940	35960	27142	31954	
750	0	33032	36096	27150	31954	
751	0	32968	36064	27126	31940	
752	0	33008	36014	27150	31956	
753	0	33008	36082	27157	31940	
754	0	32990	36096	27130	31944	
755	0	33000	36072	27126	31936	
756	0	32896	36028	27114	31952	
757	0	32868	36126	27120	31968	
758	0	32830	36029	27128	31936	
759	0	32782	36016	27160	31944	
760	0	32738	35956	27102	31948	
761	0	32762	36036	27114	31950	
762	0	32772	35978	27124	31938	
763	0	32768	36199	27140	31970	
764	0	32718	36092	27166	31936	
765	0	32716	36136	27160	31958	
766	0	32776	36124	27124	31944	
767	0	32792	36028	27130	31946	
768	0	32836	36100	27132	31948	
769	0	32919	36126	27140	31946	
770	0	32882	36130	27144	31958	
771	0	32952	36028	27106	31922	
772	0	32919	36116	27153	31932	
773	0	32844	36074	27146	31938	
774	0	32812	36072	27119	31944	
775	0	32758	36000	27142	31952	
776	0	32814	36060	27115	31948	
777	0	32796	36000	27144	31956	
778	0	32814	35999	27156	31940	
779	0	32764	36058	27160	31944	
780	0	32768	35954	27162	31962	
781	0	32742	36102	27142	31953	
782	0	32782	36044	27150	31956	
783	0	32766	35978	27132	31960	
784	0	32832	36036	27160	31946	
785	0	32872	36080	27152	31962	
786	0	32884	36076	27150	31974	
787	0	32900	36100	27146	31978	
788	0	32873	36079	27144	31968	
789	0	32740	35956	27112	31940	
790	0	32264	36072	27149	31950	
791	0	31700	36054	27128	31952	
792	0	31406	36108	27162	31952	
793	0	31564	36008	27160	31960	
794	0	31992	36010	27153	31954	
795	0	33494	36052	27176	31959	
796	0	35872	36152	27160	31984	
797	0	39124	36224	27170	31968	
798	0	42864	36480	27176	31961	
799	0	46280	36325	27160	31954	
800	0	48762	36036	27172	31960	
801	0	46564	36280	27162	31944	
802	0	40056	36314	27128	31958	
803	0	34348	36090	27129	31928	
804	0	34592	36102	27136	31970	
805	0	34956	36064	27140	31944	
806	0	34068	36168	27124	31941	
807	0	33120	36352	27132	31956	
808	0	32282	35990	27112	31946	
809	0	31668	35912	27154	31962	
810	0	31298	35792	27114	31960	
811	0	31010	35876	27138	31984	
812	0	30926	36064	27149	31984	
813	0	30936	36194	27140	31964	
814	0	30868	36106	27138	31930	
815	0	30832	35956	27142	31936	
816	0	30850	35860	27160	31958	
817	0	30848	35753	27164	31976	
818	0	30870	35982	27208	31976	
819	0	30852	35968	27262	31982	
820	0	30874	36056	27268	31976	
821	0	30930	36137	27264	31954	
822	0	30993	36076	27216	31950	
823	0	31089	36081	27192	31936	
824	0	31184	36124	27176	31914	
825	0	31192	36124	27132	31870	
826	0	31158	36184	27124	31892	
827	0	31238	36226	27131	31902	
828	0	31276	36168	27120	31925	
829	0	31330	35964	27128	31954	
830	0	31364	36084	27128	31959	
831	0	31398	36106	27128	31986	
832	0	31392	35966	27124	31974	
833	0	31404	36215	27122	31988	
834	0	31488	36084	27136	32016	
835	0	31498	36196	27112	31964	
836	0	31532	35976	27114	31982	
837	0	31534	35986	27104	31965	
838	0	31565	36070	27096	31972	
839	0	31578	36090	27094	31964	
840	0	31566	36042	27112	31958	
841	0	31600	36136	27102	31962	
842	0	31592	36082	27092	31936	
843	0	31584	36044	27112	31950	
844	0	31664	36108	27100	31930	
845	0	31720	36140	27096	31956	
846	0	31761	36121	27096	31954	
847	0	31774	35978	27138	31960	
848	0	31746	35988	27133	31932	
849	0	31766	35932	27141	31982	
850	0	31750	36040	27134	31968	
851	0	31858	35920	27136	31994	
852	0	31912	36008	27150	31974	
853	0	31948	36058	27158	31977	
854	0	31930	35934	27172	31970	
855	0	31848	36052	27166	31992	
856	0	31834	35930	27165	31981	
857	0	31834	36028	27166	31992	
858	0	31856	35968	27174	31992	
859	0	31866	35968	27180	31976	
860	0	31856	36080	27180	31976	
861	0	31760	36016	27169	31988	
862	0	31772	36072	27200	31974	
863	0	31804	36016	27164	31988	
864	0	31836	35965	27172	31992	
865	0	31848	36036	27186	31980	
866	0	31863	36046	27200	31968	
867	0	31952	36140	27164	31972	
868	0	32016	36116	27204	31980	
869	0	31984	36064	27168	31978	
870	0	31912	35995	27162	31968	
871	0	31988	35992	27162	31954	
872	0	32070	36168	27136	31968	
873	0	32168	36068	27179	31978	
874	0	32172	36054	27158	31978	
875	0	32274	36050	27146	31990	
876	0	32320	36082	27140	31996	
877	0	32414	36028	27132	31992	
878	0	32426	36064	27142	31978	
879	0	32494	36120	27172	31964	
880	0	32542	36128	27168	31976	
881	0	32680	36028	27158	31962	
882	0	32738	36106	27124	31962	
883	0	32752	36036	27148	31966	
884	0	32856	36000	27156	31980	
885	0	32868	36024	27145	31984	
886	0	32890	36104	27160	31988	
887	0	32904	36118	27166	32002	
888	0	32921	36000	27169	31975	
889	0	32908	35888	27162	31988	
890	0	32890	36064	27162	31986	
891	0	32828	35992	27188	31968	
892	0	32852	36080	27184	31994	
893	0	32863	36004	27194	31970	
894	0	32878	36002	27200	31968	
895	0	32924	36024	27174	31950	
896	0	32868	36022	27144	31960	
897	0	32828	36023	27160	31968	
898	0	32782	35976	27146	32010	
899	0	32870	36074	27140	31970	
900	0	32868	36052	27166	31984	
901	0	32838	35874	27167	32004	
902	0	32872	36014	27182	32000	
903	0	32850	35972	27152	31996	
904	0	32868	36056	27183	31970	
905	0	32944	36096	27172	31980	
906	0	32910	36100	27138	31954	
907	0	32916	35954	27126	31950	
908	0	32932	36040	27146	31970	
909	0	32922	36092	27129	31968	
910	0	32874	35992	27132	31956	
911	0	32896	35960	27136	31978	
912	0	32898	35984	27129	31954	
913	0	32964	36170	27148	31984	
914	0	32930	36027	27160	31944	
915	0	32920	36024	27165	31960	
916	0	32938	36090	27124	31958	
917	0	32988	36034	27130	31944	
918	0	32992	36112	27146	31966	
919	0	33004	36138	27156	31932	
920	0	33004	35992	27124	31936	
921	0	32978	36096	27142	31947	
922	0	32968	36084	27112	31942	
923	0	32980	36030	27128	31948	
924	0	33018	36134	27130	31948	
925	0	33012	36002	27126	31936	
926	0	32956	36052	27142	31968	
927	0	32876	36036	27112	31948	
928	0	32968	36102	27124	31956	
929	0	32962	36096	27158	31952	
930	0	32938	36092	27152	31946	
931	0	32962	35934	27136	31964	
932	0	32972	36216	27122	31944	
933	0	33018	36064	27122	31942	
934	0	33026	36148	27135	31938	
935	0	32996	36158	27138	31962	
936	0	32948	36010	27156	31962	
937	0	32936	36020	27146	31972	
938	0	32921	36084	27156	31960	
939	0	32975	35992	27152	31982	
940	0	32944	36148	27156	31964	
941	0	32914	36208	27182	31978	
942	0	32960	36054	27132	31951	
943	0	33003	36048	27160	31990	
944	0	32972	36048	27144	31984	
945	0	32960	36040	27168	31960	
946	0	32918	36136	27122	31938	
947	0	32930	36104	27175	31956	
948	0	32946	36038	27152	31980	
949	0	32974	35922	27148	31976	
950	0	32989	36078	27136	31960	
951	0	32952	36138	27152	31962	
952	0	32956	36214	27180	31964	
953	0	32964	36064	27144	31960	
954	0	32936	36064	27124	31966	
955	0	32906	36136	27140	31974	
956	0	32900	36046	27132	31946	
957	0	32938	36016	27154	31943	
958	0	32949	36064	27146	31963	
959	0	32930	36032	27142	31970	
960	0	32940	36076	27118	31974	
961	0	32920	35952	27130	31970	
962	0	32896	36064	27110	31944	
963	0	32896	36053	27124	31952	
964	0	32800	36134	27124	31960	
965	0	32776	35968	27132	31946	
966	0	32774	35934	27136	31964	
967	0	32782	36132	27108	31944	
968	0	32782	36060	27106	31952	
969	0	32840	35980	27138	31966	
970	0	32844	36002	27142	31970	
971	0	32814	36096	27145	31956	
972	0	32808	36036	27136	31970	
973	0	32834	35947	27152	31956	
974	0	32768	36068	27140	31960	
975	0	32736	35898	27150	31980	
976	0	32700	36092	27152	31952	
977	0	32672	36052	27160	31960	
978	0	32628	35972	27144	31956	
979	0	32620	36072	27114	31931	
980	0	32626	36072	27146	31960	
981	0	32740	35992	27158	31970	
982	0	32756	36100	27128	31968	
983	0	32792	36152	27136	31948	
984	0	32914	36068	27160	31948	
985	0	32932	36108	27128	31966	
986	0	32996	36090	27170	31958	
987	0	33058	35992	27128	31975	
988	0	33087	35954	27158	31960	
989	0	33040	36028	27138	31958	
990	0	33006	35996	27150	31962	
991	0	32916	36108	27137	31976	
992	0	32853	36080	27143	31958	
993	0	32874	36012	27146	31964	
994	0	32912	36092	27142	31978	
995	0	32906	36008	27140	31978	
996	0	32896	36112	27156	31960	
997	0	32904	36100	27132	31954	
998	0	32956	36082	27138	31956	
999	0	32952	36004	27117	31940	
1000	0	32969	36034	27140	31980	
1001	0	32980	36030	27128	31968	
1002	0	32956	36092	27138	31988	
1003	0	32950	35988	27138	31970	
1004	0	32932	36114	27127	31934	
1005	0	32940	36072	27132	31938	
1006	0	32960	36040	27126	31963	
1007	0	32800	35982	27113	31956	
1008	0	32209	35934	27130	31956	
1009	0	31696	36092	27152	31940	
1010	0	31582	35972	27136	31930	
1011	0	31732	36006	27136	31976	
1012	0	32152	36016	27140	31992	
1013	0	33836	36068	27158	31954	
1014	0	36452	36200	27156	31940	
1015	0	40144	36248	27156	31948	
1016	0	44104	36344	27155	31968	
1017	0	47604	36276	27168	31958	
1018	0	50064	36140	27155	31952	
1019	0	46872	36268	27128	31936	
1020	0	39996	36282	27144	31932	
1021	0	34382	36184	27120	31946	
1022	0	34910	36072	27137	31964	
1023	0	35056	36320	27116	31956	
1024	0	34044	36186	27119	31960	
1025	0	33056	36226	27098	31940	
1026	0	32210	36000	27086	31924	
1027	0	31600	35908	27110	31936	
1028	0	31190	35820	27066	31976	
1029	0	30914	35832	27098	31944	
1030	0	30800	35968	27136	31951	
1031	0	30752	36001	27166	31946	
1032	0	30688	35956	27172	31929	
1033	0	30702	35928	27175	31926	
1034	0	30744	35874	27182	31944	
1035	0	30736	36028	27206	31928	
1036	0	30758	35984	27218	31950	
1037	0	30756	35962	27249	31944	
1038	0	30766	36042	27210	31944	
1039	0	30840	36000	27208	31980	
1040	0	30862	36064	27212	31958	
1041	0	30948	36100	27184	31960	
1042	0	30986	36028	27148	31936	
1043	0	31052	35994	27112	31906	
1044	0	31080	36160	27084	31916	
1045	0	31066	36117	27096	31900	
1046	0	31132	36054	27100	31926	
1047	0	31160	36148	27108	31918	
1048	0	31166	36108	27108	31942	
1049	0	31258	36058	27124	31954	
1050	0	31284	36016	27156	31948	
1051	0	31360	36032	27121	31930	
1052	0	31372	36030	27132	31946	
1053	0	31388	36020	27142	31967	
1054	0	31424	35952	27146	31964	
1055	0	31466	36090	27122	31954	
1056	0	31492	35916	27144	31972	
1057	0	31510	36074	27104	31944	
1058	0	31584	36134	27102	31962	
1059	0	31596	35978	27114	31950	
1060	0	31594	36012	27120	31940	
1061	0	31564	36066	27137	31944	
1062	0	31604	36098	27088	31940	
1063	0	31692	35972	27101	31921	
1064	0	31690	36032	27096	31932	
1065	0	31709	36080	27116	31940	
1066	0	31738	36020	27112	31934	
1067	0	31762	36016	27107	31912	
1068	0	31776	36060	27124	31948	
1069	0	31786	36048	27116	31948	
1070	0	31798	36024	27104	31964	
1071	0	31780	36106	27106	31956	
1072	0	31812	36042	27104	31974	
1073	0	31802	36119	27100	31946	
1074	0	31768	36040	27100	31964	
1075	0	31748	35984	27120	31962	
1076	0	31700	36008	27120	31968	
1077	0	31724	36066	27124	31976	
1078	0	31662	36110	27130	31980	
1079	0	31662	36104	27128	31949	
1080	0	31670	36026	27118	31956	
1081	0	31644	35892	27154	31970	
1082	0	31660	36084	27150	31946	
1083	0	31689	35892	27168	31942	
1084	0	31716	35992	27165	31944	
1085	0	31738	36044	27144	31974	
1086	0	31772	36002	27156	31984	
1087	0	31778	36050	27130	31952	
1088	0	31844	36112	27120	31956	
1089	0	31894	36014	27140	31960	
1090	0	31980	36034	27150	31988	
1091	0	32058	36178	27152	31956	
1092	0	32124	35976	27130	31940	
1093	0	32144	35976	27136	31948	
1094	0	32212	36048	27120	31966	
1095	0	32277	36204	27136	31968	
1096	0	32356	35988	27158	31960	
1097	0	32482	36132	27136	31964	
1098	0	32574	36072	27142	31936	
1099	0	32714	36016	27152	31952	
1100	0	32824	36076	27156	31936	
1101	0	32902	36074	27127	31951	
1102	0	32896	36120	27120	31946	
1103	0	32978	36186	27098	31948	
1104	0	33000	36126	27124	31948	
1105	0	33048	36096	27144	31949	
1106	0	33100	36016	27148	31964	
1107	0	33104	36068	27120	31944	
1108	0	33138	36136	27122	31944	
1109	0	33176	35944	27137	31952	
1110	0	33164	35957	27174	31952	
1111	0	33168	36164	27160	31946	
1112	0	33212	36120	27158	31956	
1113	0	33204	35985	27138	31960	
1114	0	33200	35968	27134	31954	
1115	0	33155	36084	27136	31984	
1116	0	33136	36128	27104	31970	
1117	0	33176	36078	27130	31920	
1118	0	33210	36072	27124	31918	
1119	0	33202	36000	27118	31936	
1120	0	33152	36020	27138	31980	
1121	0	33142	36069	27144	31972	
1122	0	33155	35968	27127	31970	
1123	0	33154	35972	27128	31955	
1124	0	33152	36048	27152	31956	
1125	0	33168	35997	27106	31934	
1126	0	33168	35952	27138	31924	
1127	0	33184	36124	27147	31940	
1128	0	33168	36108	27124	31912	
1129	0	33204	36015	27124	31926	
1130	0	33192	35916	27136	31930	
1131	0	33180	36026	27130	31920	
1132	0	33189	36028	27134	31924	
1133	0	33162	36034	27120	31960	
1134	0	33162	36052	27134	31938	
1135	0	33136	35960	27100	31952	
1136	0	33098	36058	27142	31982	
1137	0	33128	36014	27125	31968	
1138	0	33174	36024	27138	31974	
1139	0	33124	36052	27129	31956	
1140	0	33095	36178	27144	31952	
1141	0	33104	36058	27156	31956	
1142	0	33154	36148	27136	31972	
1143	0	33148	36016	27136	31956	
1144	0	33133	36082	27148	31948	
1145	0	33129	36080	27130	31940	
1146	0	33146	36068	27136	31944	
1147	0	33140	35922	27146	31948	
1148	0	33120	36120	27142	31952	
1149	0	33092	36016	27122	31924	
1150	0	33105	36116	27145	31948	
1151	0	33076	36190	27102	31938	
1152	0	33084	36002	27144	31946	
1153	0	33088	35972	27136	31966	
1154	0	33108	36072	27142	31956	
1155	0	33140	36056	27120	31928	
1156	0	33132	36000	27130	31957	
1157	0	33140	36088	27124	31944	
1158	0	33156	36178	27116	31958	
1159	0	33126	36170	27098	31952	
1160	0	33148	36082	27114	31960	
1161	0	33152	35956	27098	31930	
1162	0	33136	36044	27124	31950	
1163	0	33094	36112	27124	31958	
1164	0	33076	36015	27119	31940	
1165	0	33043	36072	27112	31952	
1166	0	33036	36052	27154	31942	
1167	0	33028	36076	27138	31948	
1168	0	33045	36066	27150	31940	
1169	0	33074	36024	27162	31926	
1170	0	33069	36077	27124	31953	
1171	0	33034	36036	27116	31936	
1172	0	32996	36084	27128	31940	
1173	0	32988	36056	27114	31924	
1174	0	33016	36112	27148	31914	
1175	0	33048	35992	27146	31934	
1176	0	33024	36078	27104	31924	
1177	0	33017	36112	27092	31930	
1178	0	33010	36000	27116	31928	
1179	0	32994	36076	27136	31970	
1180	0	32986	36084	27138	31958	
1181	0	32992	36002	27124	31950	
1182	0	32996	36020	27106	31949	
1183	0	33032	36104	27124	31942	
1184	0	33028	36136	27136	31948	
1185	0	33010	36137	27124	31968	
1186	0	33003	36096	27112	31940	
1187	0	33026	36066	27128	31952	
1188	0	33044	36104	27136	31952	
1189	0	33026	36128	27116	31940	
1190	0	33024	36122	27140	31952	
1191	0	33076	36076	27134	31934	
1192	0	33064	36052	27136	31960	
1193	0	33100	36054	27140	31962	
1194	0	33122	35920	27132	31948	
1195	0	33096	36026	27118	31946	
1196	0	33096	36144	27108	31956	
1197	0	33086	36002	27108	31945	
1198	0	33088	36050	27125	31945	
1199	0	33104	35982	27120	31934	
1200	0	33126	35936	27112	31931	
1201	0	33168	35960	27122	31942	
1202	0	33170	36098	27084	31940	
1203	0	33164	36120	27120	31952	
1204	0	33160	36098	27124	31946	
1205	0	33102	36080	27114	31924	
1206	0	33152	36000	27112	31944	
1207	0	33184	36050	27122	31944	
1208	0	33128	36038	27128	31942	
1209	0	33200	36184	27120	31944	
1210	0	33230	36094	27128	31956	
1211	0	33204	35998	27122	31960	
1212	0	33226	36041	27129	31952	
1213	0	33250	35952	27130	31924	
1214	0	33280	36004	27126	31942	
1215	0	33238	36038	27120	31943	
1216	0	33196	35996	27102	31966	
1217	0	33192	36160	27110	31949	
1218	0	33202	36080	27120	31952	
1219	0	33188	36026	27088	31962	
1220	0	33184	36048	27124	31954	
1221	0	33204	36212	27122	31936	
1222	0	33292	35986	27116	31954	
1223	0	33292	35936	27100	31959	
1224	0	33282	35958	27120	31934	
1225	0	33320	35928	27110	31946	
1226	0	33400	36017	27112	31960	
1227	0	33394	35968	27112	31961	
1228	0	33440	35968	27112	31948	
1229	0	33438	35922	27132	31936	
1230	0	33432	36176	27123	31946	
1231	0	33444	36036	27096	31956	
1232	0	33422	36084	27090	31956	
1233	0	33364	36058	27090	31958	
1234	0	33356	36148	27114	31942	
1235	0	33326	35924	27118	31962	
1236	0	33324	35992	27110	31952	
1237	0	33332	36098	27129	31944	
1238	0	33348	36052	27128	31948	
1239	0	33360	36090	27121	31945	
1240	0	33340	35959	27114	31944	
1241	0	33330	36004	27124	31948	
1242	0	33324	35932	27122	31962	
1243	0	33346	36032	27142	31960	
1244	0	33274	35880	27141	31948	
1245	0	33274	35944	27129	31922	
1246	0	33226	36030	27140	31932	
1247	0	33241	36047	27124	31930	
1248	0	33180	35948	27124	31926	
1249	0	32836	36066	27130	31938	
1250	0	32300	36000	27128	31912	
1251	0	31850	36050	27129	31932	
1252	0	31890	36092	27130	31956	
1253	0	31788	36120	27112	31924	
1254	0	32504	35953	27132	31942	
1255	0	34664	36104	27139	31912	
1256	0	37968	36188	27132	31940	
1257	0	42286	36276	27156	31922	
1258	0	45608	36216	27134	31938	
1259	0	48264	36096	27120	31968	
1260	0	48240	36098	27150	31932	
1261	0	43012	36354	27134	31915	
1262	0	37304	36174	27104	31904	
1263	0	35352	36028	27064	31943	
1264	0	35932	36102	27066	31916	
1265	0	34796	36234	27080	31944	
1266	0	33640	36084	27070	31924	
1267	0	32656	35958	27060	31935	
1268	0	31921	35980	27062	31968	
1269	0	31510	35941	27096	31959	
1270	0	31192	35858	27124	31992	
1271	0	31056	35996	27130	31976	
1272	0	30952	36134	27180	31939	
1273	0	30904	35966	27162	31928	
1274	0	30844	35878	27124	31918	
1275	0	30870	35968	27138	31916	
1276	0	30910	35920	27176	31920	
1277	0	30924	36024	27198	31936	
1278	0	30980	36112	27196	31936	
1279	0	30994	36062	27188	31945	
1280	0	30980	35996	27170	31924	
1281	0	30952	35908	27154	31950	
1282	0	31000	35852	27122	31956	
1283	0	31040	35956	27098	31960	
1284	0	31042	36056	27078	31960	
1285	0	31038	36049	27048	31992	
1286	0	31020	36052	27090	31960	
1287	0	31026	36030	27076	31970	
1288	0	31026	36010	27100	31952	
1289	0	31046	36073	27104	31958	
1290	0	31032	36078	27128	31927	
1291	0	31064	36112	27130	31932	
1292	0	31052	35992	27150	31934	
1293	0	31038	35968	27150	31930	
1294	0	31041	36080	27140	31939	
1295	0	31052	36058	27133	31924	
1296	0	31080	36066	27118	31924	
1297	0	31048	35954	27129	31940	
1298	0	31054	35972	27094	31946	
1299	0	31104	36000	27112	31942	
1300	0	31194	35952	27120	31988	
1301	0	31148	36094	27094	31944	
1302	0	31196	36020	27098	31968	
1303	0	31176	35976	27112	31946	
1304	0	31236	36002	27112	31927	
1305	0	31222	36032	27100	31922	
1306	0	31268	36044	27088	31908	
1307	0	31300	36040	27083	31904	
1308	0	31300	36040	27108	31916	
1309	0	31280	35996	27088	31932	
1310	0	31262	36130	27088	31938	
1311	0	31298	35908	27114	31936	
1312	0	31224	36026	27114	31918	
1313	0	31221	36046	27112	31938	
1314	0	31212	36024	27093	31917	
1315	0	31200	35982	27090	31936	
1316	0	31248	36000	27124	31929	
1317	0	31212	36038	27124	31906	
1318	0	31186	36114	27140	31924	
1319	0	31208	35952	27130	31928	
1320	0	31160	35964	27099	31940	
1321	0	31128	36046	27124	31920	
1322	0	31142	36194	27146	31936	
1323	0	31122	36080	27142	31918	
1324	0	31186	35954	27120	31928	
1325	0	31213	35912	27138	31962	
1326	0	31233	35924	27152	31944	
1327	0	31266	35880	27124	31928	
1328	0	31308	36048	27152	31942	
1329	0	31360	35960	27128	31936	
1330	0	31448	35982	27136	31952	
1331	0	31496	35928	27108	31944	
1332	0	31572	36064	27136	31960	
1333	0	31616	36052	27122	31924	
1334	0	31688	35958	27156	31948	
1335	0	31720	35986	27127	31948	
1336	0	31744	36044	27124	31917	
1337	0	31844	35956	27128	31941	
1338	0	31912	36074	27153	31928	
1339	0	31988	36112	27126	31924	
1340	0	32096	36028	27112	31920	
1341	0	32212	36046	27128	31925	
1342	0	32332	35892	27116	31920	
1343	0	32424	36024	27102	31938	
1344	0	32540	35992	27120	31935	
1345	0	32594	35994	27100	31934	
1346	0	32644	36054	27138	31960	
1347	0	32748	36050	27122	31934	
1348	0	32831	36102	27124	31946	
1349	0	32864	36144	27122	31916	
1350	0	32930	36022	27096	31924	
1351	0	32968	36084	27129	31928	
1352	0	32998	35982	27128	31904	
1353	0	33010	36048	27126	31902	
1354	0	33064	36030	27120	31908	
1355	0	33024	36100	27096	31938	
1356	0	33046	36124	27108	31936	
1357	0	33038	36026	27097	31934	
1358	0	33050	36010	27080	31950	
1359	0	33066	36114	27088	31928	
1360	0	33082	36012	27102	31940	
1361	0	33076	36058	27100	31926	
1362	0	33084	36078	27105	31942	
1363	0	33088	36130	27138	31950	
1364	0	33092	35960	27118	31938	
1365	0	33132	36012	27140	31952	
1366	0	33156	35924	27104	31938	
1367	0	33144	36086	27108	31950	
1368	0	33168	36032	27128	31930	
1369	0	33188	35927	27125	31940	
1370	0	33216	36032	27108	31924	
1371	0	33236	36066	27133	31906	
1372	0	33260	36044	27104	31896	
1373	0	33322	36100	27100	31884	
1374	0	33292	36008	27112	31912	
1375	0	33290	35960	27136	31942	
1376	0	33280	36065	27128	31912	
1377	0	33280	35948	27118	31918	
1378	0	33300	36028	27112	31948	
1379	0	33288	36040	27109	31922	
1380	0	33272	36056	27126	31916	
1381	0	33260	36009	27120	31926	
1382	0	33240	36020	27108	31934	
1383	0	33198	35978	27150	31936	
1384	0	33218	36064	27125	31912	
1385	0	33180	36069	27122	31920	
1386	0	33226	36000	27092	31924	
1387	0	33236	35978	27132	31926	
1388	0	33182	36053	27098	31921	
1389	0	33180	36040	27110	31920	
1390	0	33100	35909	27116	31905	
1391	0	33180	35936	27114	31930	
1392	0	33172	36072	27116	31900	
1393	0	33177	36104	27096	31922	
1394	0	33178	36122	27108	31920	
1395	0	33172	36102	27112	31916	
1396	0	33168	36096	27086	31932	
1397	0	33168	35968	27116	31926	
1398	0	33164	36032	27112	31930	
1399	0	33209	36064	27118	31936	
1400	0	33234	36080	27162	31936	
1401	0	33208	36096	27122	31930	
1402	0	33202	35964	27104	31941	
1403	0	33160	36140	27118	31932	
1404	0	33192	36078	27090	31932	
1405	0	33184	35994	27108	31932	
1406	0	33142	35968	27118	31922	
1407	0	33124	36008	27096	31924	
1408	0	33104	36064	27125	31920	
1409	0	33078	36160	27138	31934	
1410	0	33015	35966	27112	31952	
1411	0	33006	35988	27140	31940	
1412	0	32968	36184	27118	31938	
1413	0	32968	36058	27146	31946	
1414	0	32992	36120	27126	31928	
1415	0	33001	36056	27105	31932	
1416	0	32989	36026	27144	31924	
1417	0	32989	36034	27132	31942	
1418	0	32962	36156	27106	31910	
1419	0	32956	36020	27116	31904	
1420	0	32924	36076	27120	31920	
1421	0	32910	35966	27106	31920	
1422	0	32896	36112	27132	31906	
1423	0	32896	36000	27098	31908	
1424	0	32881	36005	27118	31900	
1425	0	32896	36136	27118	31916	
1426	0	32888	35938	27106	31928	
1427	0	32904	36060	27130	31917	
1428	0	32948	36054	27128	31917	
1429	0	32920	35988	27140	31926	
1430	0	32896	36042	27130	31917	
1431	0	32888	36028	27098	31926	
1432	0	32866	36096	27104	31920	
1433	0	32856	36050	27118	31928	
1434	0	32860	36064	27109	31912	
1435	0	32864	36004	27120	31912	
1436	0	32876	35976	27108	31910	
1437	0	32926	36084	27096	31908	
1438	0	32934	36071	27124	31897	
1439	0	32930	36036	27124	31908	
1440	0	32830	36000	27100	31892	
1441	0	32835	36050	27096	31908	
1442	0	32856	36004	27146	31908	
1443	0	32840	35943	27090	31926	
1444	0	32816	35996	27108	31916	
1445	0	32834	36050	27100	31912	
1446	0	32837	36050	27100	31926	
1447	0	32814	35992	27112	31928	
1448	0	32833	36024	27120	31918	
1449	0	32833	36048	27104	31936	
1450	0	32814	35964	27120	31936	
1451	0	32796	36112	27098	31917	
1452	0	32770	36072	27082	31902	
1453	0	32750	36052	27120	31900	
1454	0	32748	36038	27090	31932	
1455	0	32748	36099	27090	31944	
1456	0	32741	35944	27112	31928	
1457	0	32696	36082	27104	31912	
1458	0	32672	36100	27120	31940	
1459	0	32654	35958	27086	31904	
1460	0	32666	36160	27104	31932	
1461	0	32652	36044	27086	31916	
1462	0	32661	35964	27112	31918	
1463	0	32628	36138	27109	31912	
1464	0	32572	35950	27112	31920	
1465	0	32592	36000	27110	31908	
1466	0	32544	36077	27112	31898	
1467	0	32514	36026	27124	31896	
1468	0	32570	36038	27074	31914	
1469	0	32551	36032	27106	31928	
1470	0	32580	35984	27118	31904	
1471	0	32592	36072	27118	31930	
1472	0	32634	36100	27097	31922	
1473	0	32632	36040	27102	31938	
1474	0	32724	36058	27128	31936	
1475	0	32752	36056	27106	31924	
1476	0	32788	36072	27112	31904	
1477	0	32872	36080	27100	31912	
1478	0	32828	36092	27100	31920	
1479	0	32796	35956	27138	31929	
1480	0	32746	36052	27084	31913	
1481	0	32748	36026	27074	31930	
1482	0	32692	35992	27082	31936	
1483	0	32657	36001	27108	31906	
1484	0	32572	36020	27117	31924	
1485	0	32665	36042	27136	31904	
1486	0	32687	35872	27127	31914	
1487	0	32672	36114	27136	31932	
1488	0	32666	35980	27148	31944	
1489	0	32636	36064	27092	31940	
1490	0	32594	36038	27116	31920	
1491	0	32598	35980	27118	31930	
1492	0	32576	35962	27132	31898	
1493	0	32597	36118	27141	31936	
1494	0	32557	35980	27140	31908	
1495	0	32430	36018	27120	31906	
1496	0	31978	36088	27122	31936	
1497	0	31504	36024	27124	31924	
1498	0	31250	36084	27144	31932	
1499	0	31364	36086	27128	31932	
1500	0	31508	36128	27102	31912	
1501	0	32608	35946	27109	31915	
1502	0	34956	36124	27124	31906	
1503	0	38248	36186	27144	31924	
1504	0	42240	36224	27101	31917	
1505	0	45328	36264	27129	31916	
1506	0	47440	36146	27120	31932	
1507	0	46056	36328	27124	31916	
1508	0	40628	36308	27154	31930	
1509	0	34952	36014	27128	31927	
1510	0	34470	36176	27104	31941	
1511	0	34812	36164	27083	31908	
1512	0	33724	36244	27076	31920	
1513	0	32690	36232	27064	31904	
1514	0	31867	35924	27100	31922	
1515	0	31244	35880	27087	31936	
1516	0	30891	35850	27084	31982	
1517	0	30600	35762	27100	31960	
1518	0	30470	36096	27136	31948	
1519	0	30456	35914	27132	31934	
1520	0	30468	35856	27098	31920	
1521	0	30400	35952	27136	31904	
1522	0	30496	35880	27148	31950	
1523	0	30564	35968	27136	31960	
1524	0	30578	35880	27188	31968	
1525	0	30656	35976	27214	31973	
1526	0	30720	35930	27218	31978	
1527	0	30698	35940	27214	31976	
1528	0	30722	35988	27186	31956	
1529	0	30748	36108	27152	31924	
1530	0	30844	36150	27121	31928	
1531	0	30849	36182	27118	31897	
1532	0	30874	36084	27111	31906	
1533	0	30848	35928	27096	31916	
1534	0	30842	36032	27078	31906	
1535	0	30836	36030	27084	31938	
1536	0	30876	36120	27136	31920	
1537	0	30932	36069	27142	31948	
1538	0	30992	35922	27124	31935	
1539	0	31012	36068	27132	31906	
1540	0	31076	35959	27150	31940	
1541	0	31110	36004	27120	31918	
1542	0	31136	36110	27118	31894	
1543	0	31186	36038	27128	31918	
1544	0	31124	36048	27125	31948	
1545	0	31120	36056	27097	31939	
1546	0	31122	35978	27100	31944	
1547	0	31188	36044	27117	31946	
1548	0	31216	36014	27096	31926	
1549	0	31242	35946	27106	31936	
1550	0	31249	35908	27094	31916	
1551	0	31240	36028	27104	31916	
1552	0	31258	35986	27080	31936	
1553	0	31396	36066	27104	31908	
1554	0	31458	35933	27112	31930	
1555	0	31416	35940	27104	31932	
1556	0	31391	35994	27117	31928	
1557	0	31406	35944	27132	31920	
1558	0	31401	35920	27090	31950	
1559	0	31493	35955	27084	31940	
1560	0	31458	36047	27082	31972	
1561	0	31397	35954	27116	31944	
1562	0	31384	35980	27114	31944	
1563	0	31364	35981	27138	31966	
1564	0	31344	36068	27144	31960	
1565	0	31360	35916	27148	31970	
1566	0	31350	36070	27146	31954	
1567	0	31316	35948	27158	31944	
1568	0	31282	35916	27156	31946	
1569	0	31282	36108	27160	31962	
1570	0	31284	36072	27170	31950	
1571	0	31280	36160	27168	31946	
1572	0	31312	35964	27160	31970	
1573	0	31348	36068	27142	31954	
1574	0	31404	35872	27134	31924	
1575	0	31418	36108	27162	31934	
1576	0	31412	36128	27164	31928	
1577	0	31466	36132	27173	31936	
1578	0	31508	36128	27140	31922	
1579	0	31502	36082	27132	31929	
1580	0	31546	36080	27146	31944	
1581	0	31526	36106	27132	31932	
1582	0	31566	35956	27130	31908	
1583	0	31628	36008	27144	31956	
1584	0	31749	36116	27136	31938	
1585	0	31818	36124	27140	31944	
1586	0	31916	36168	27136	31910	
1587	0	31996	36134	27158	31932	
1588	0	32048	36016	27150	31938	
1589	0	32172	36024	27140	31944	
1590	0	32242	36096	27156	31953	
1591	0	32408	36162	27138	31942	
1592	0	32466	36066	27136	31976	
1593	0	32556	36097	27142	31968	
1594	0	32632	36056	27146	31960	
1595	0	32678	36098	27130	31958	
1596	0	32692	35968	27150	31938	
1597	0	32694	36044	27150	31930	
1598	0	32770	35882	27128	31948	
1599	0	32808	36034	27124	31944	
1600	0	32744	36062	27118	31940	
1601	0	32736	36088	27156	31944	
1602	0	32752	35968	27132	31976	
1603	0	32776	36052	27160	31988	
1604	0	32786	36036	27180	31956	
1605	0	32764	35916	27170	31952	
1606	0	32846	36034	27160	31916	
1607	0	32860	35926	27146	31948	
1608	0	32833	36142	27122	31928	
1609	0	32792	35984	27146	31956	
1610	0	32770	36164	27156	31946	
1611	0	32804	35968	27159	31948	
1612	0	32816	35936	27158	31948	
1613	0	32896	35984	27176	31938	
1614	0	32882	35972	27174	31908	
1615	0	32800	36016	27198	31934	
1616	0	32796	36068	27160	31932	
1617	0	32904	36212	27152	31924	
1618	0	32960	36122	27150	31944	
1619	0	33000	36174	27156	31978	
1620	0	33054	36025	27136	31962	
1621	0	33048	36010	27130	31942	
1622	0	33033	36140	27116	31932	
1623	0	33040	36098	27124	31964	
1624	0	32984	35960	27149	31976	
1625	0	33008	36002	27140	31960	
1626	0	32984	36064	27152	31962	
1627	0	33002	36058	27151	31959	
1628	0	33048	36040	27173	31950	
1629	0	33052	35976	27170	31940	
1630	0	33098	36048	27164	31934	
1631	0	33144	36102	27139	31920	
1632	0	33180	36004	27166	31940	
1633	0	33158	36170	27136	31934	
1634	0	33148	35984	27136	31914	
1635	0	33162	36096	27152	31932	
1636	0	33162	36016	27136	31932	
1637	0	33192	36042	27148	31939	
1638	0	33144	36008	27132	31922	
1639	0	33106	36036	27148	31952	
1640	0	33091	36086	27142	31934	
1641	0	33084	36101	27108	31936	
1642	0	32981	35988	27128	31952	
1643	0	32952	35996	27152	31941	
1644	0	33004	36064	27148	31932	
1645	0	33026	35994	27160	31930	
1646	0	33008	36050	27168	31936	
1647	0	32980	36012	27166	31930	
1648	0	32969	36079	27136	31960	
1649	0	32956	36016	27140	31955	
1650	0	32980	36034	27140	31972	
1651	0	32940	36106	27128	31964	
1652	0	32980	36106	27121	31924	
1653	0	32930	36052	27136	31940	
1654	0	32903	35994	27144	31964	
1655	0	32926	36042	27120	31974	
1656	0	32954	36032	27139	31976	
1657	0	32968	36012	27116	31968	
1658	0	33020	36132	27174	31936	
1659	0	33006	36052	27144	31970	
1660	0	32986	36240	27128	31941	
1661	0	33016	36052	27140	31972	
1662	0	33090	36088	27148	31968	
1663	0	33104	35968	27140	31940	
1664	0	33040	36064	27140	31936	
1665	0	33028	36080	27136	31968	
1666	0	33000	36060	27145	31980	
1667	0	33032	36076	27136	31952	
1668	0	33066	36068	27112	31964	
1669	0	33036	36179	27112	31984	
1670	0	33064	36124	27084	31980	
1671	0	33148	36104	27107	31952	
1672	0	33226	36064	27106	31950	
1673	0	33222	36136	27114	31980	
1674	0	33196	36004	27108	31964	
1675	0	33124	35988	27121	31972	
1676	0	33146	36070	27137	31988	
1677	0	33232	36068	27105	31962	
1678	0	33272	36096	27120	31980	
1679	0	33284	36047	27136	31984	
1680	0	33258	36064	27128	31973	
1681	0	33276	35988	27132	31985	
1682	0	33250	35996	27140	31978	
1683	0	33204	36030	27152	31968	
1684	0	33204	36048	27136	31990	
1685	0	33193	36136	27150	31988	
1686	0	33180	36090	27176	31993	
1687	0	33144	36160	27166	31954	
1688	0	33180	36084	27168	31989	
1689	0	33103	36102	27181	31980	
1690	0	33122	36080	27148	31980	
1691	0	33100	36052	27164	31980	
1692	0	33134	36123	27168	31982	
1693	0	33092	36144	27172	31970	
1694	0	33138	36051	27164	31969	
1695	0	33136	36064	27148	31964	
1696	0	33076	36106	27160	31990	
1697	0	33088	36016	27170	31972	
1698	0	33168	36060	27168	31962	
1699	0	33172	36068	27163	31970	
1700	0	33233	36049	27174	31964	
1701	0	33212	35922	27166	31964	
1702	0	33132	36008	27190	31970	
1703	0	33134	36082	27152	31974	
1704	0	33146	36069	27170	31976	
1705	0	33142	35986	27142	31965	
1706	0	33132	36052	27170	31964	
1707	0	33248	36084	27186	31960	
1708	0	33216	36140	27183	31962	
1709	0	33240	36096	27175	31972	
1710	0	33260	36154	27168	31980	
1711	0	33214	36142	27192	31982	
1712	0	33232	36052	27160	31964	
1713	0	33208	36039	27188	31958	
1714	0	33132	36100	27172	31960	
1715	0	33162	36056	27170	31965	
1716	0	33144	35962	27196	31944	
1717	0	33084	36096	27176	31980	
1718	0	32904	36048	27194	31948	
1719	0	32326	36038	27188	31981	
1720	0	31868	36096	27194	31978	
1721	0	31786	36104	27196	31950	
1722	0	32034	36016	27173	31970	
1723	0	32580	36128	27198	31978	
1724	0	34290	36060	27212	31963	
1725	0	36634	36160	27180	31969	
1726	0	39994	36296	27184	31980	
1727	0	43788	36392	27180	31966	
1728	0	47322	36160	27186	31964	
1729	0	49692	36084	27188	31959	
1730	0	46180	36416	27180	31960	
1731	0	38932	36184	27194	31977	
1732	0	34068	36192	27174	31954	
1733	0	34938	36100	27185	31952	
1734	0	35016	36188	27138	31957	
1735	0	34041	36210	27146	31946	
1736	0	33154	36236	27154	31913	
1737	0	32364	36122	27160	31930	
1738	0	31816	35947	27150	31932	
1739	0	31460	35824	27176	31959	
1740	0	31204	35826	27150	31993	
1741	0	31030	35968	27148	31989	
1742	0	30964	36048	27169	31960	
1743	0	30908	36120	27172	31946	
1744	0	30881	36046	27156	31956	
1745	0	30864	35922	27214	31956	
1746	0	30848	35980	27228	31994	
1747	0	30950	35906	27240	32012	
1748	0	30964	35993	27272	31991	
1749	0	30998	35938	27282	31988	
1750	0	31086	35978	27288	31938	
1751	0	31142	36080	27260	31928	
1752	0	31169	36092	27232	31914	
1753	0	31224	36084	27194	31918	
1754	0	31248	36180	27184	31914	
1755	0	31306	36268	27162	31914	
1756	0	31274	36114	27148	31936	
1757	0	31264	36011	27136	31964	
1758	0	31272	36250	27140	31994	
1759	0	31242	36284	27132	32024	
1760	0	31312	36216	27120	32018	
1761	0	31360	36112	27076	32010	
1762	0	31372	36144	27114	31992	
1763	0	31410	36046	27117	31996	
1764	0	31496	36036	27120	31996	
1765	0	31546	36070	27146	31960	
1766	0	31564	36064	27136	31956	
1767	0	31588	35972	27112	31988	
1768	0	31610	36030	27096	31930	
1769	0	31642	35920	27118	31924	
1770	0	31616	36080	27118	31906	
1771	0	31616	36140	27113	31918	
1772	0	31680	36180	27124	31918	
1773	0	31762	36072	27136	31940	
1774	0	31840	36084	27112	31940	
1775	0	31864	36100	27124	31936	
1776	0	31794	35940	27119	31948	
1777	0	31804	35894	27132	31960	
1778	0	31896	36040	27136	31984	
1779	0	31982	35990	27124	31968	
1780	0	32017	36004	27162	31968	
1781	0	31956	36058	27120	31976	
1782	0	31954	35968	27148	31988	
1783	0	31920	36028	27132	31976	
1784	0	31968	36028	27152	31990	
1785	0	32028	35980	27163	31990	
1786	0	32032	35996	27158	31984	
1787	0	31984	35922	27180	31976	
1788	0	31960	35980	27166	32008	
1789	0	31950	35962	27189	31960	
1790	0	31972	36084	27158	31976	
1791	0	31996	36084	27168	31982	
1792	0	32004	36172	27170	31970	
1793	0	31916	36136	27160	31967	
1794	0	31886	36050	27174	31949	
1795	0	31918	36052	27181	31948	
1796	0	31964	36108	27165	31976	
1797	0	32024	36152	27155	31976	
1798	0	32072	36152	27159	31970	
1799	0	32140	36016	27130	31968	
1800	0	32142	36096	27131	31948	
1801	0	32230	36090	27136	31958	
1802	0	32268	36146	27152	31960	
1803	0	32276	36125	27140	31972	
1804	0	32284	36144	27142	31956	
1805	0	32360	36062	27148	31968	
1806	0	32430	36101	27136	31960	
1807	0	32512	36216	27160	31950	
1808	0	32592	36100	27135	31958	
1809	0	32660	36112	27125	31956	
1810	0	32736	36128	27130	31970	
1811	0	32758	36064	27153	31970	
1812	0	32738	36016	27140	31984	
1813	0	32712	36122	27156	31968	
1814	0	32770	36084	27146	31972	
1815	0	32816	36126	27144	31976	
1816	0	32806	36124	27172	31988	
1817	0	32848	36000	27196	32000	
1818	0	32876	36088	27172	31962	
1819	0	32840	36068	27158	31980	
1820	0	32810	36192	27164	31990	
1821	0	32768	36060	27180	31960	
1822	0	32752	36116	27214	31956	
1823	0	32800	36050	27212	31953	
1824	0	32840	36030	27177	31950	
1825	0	32900	36078	27156	31962	
1826	0	32936	36030	27173	31958	
1827	0	32916	36052	27164	31948	
1828	0	32960	36008	27184	31962	
1829	0	32954	36186	27165	32000	
1830	0	32961	36017	27198	31948	
1831	0	32905	36026	27176	31956	
1832	0	32872	36128	27194	31946	
1833	0	32960	36078	27192	31940	
1834	0	33048	36132	27211	31944	
1835	0	33048	35982	27174	31930	
1836	0	33040	36104	27146	31928	
1837	0	33054	35975	27156	31944	
1838	0	33094	36120	27144	31965	
1839	0	33144	36098	27148	31952	
1840	0	33144	36032	27136	31942	
1841	0	33110	36106	27116	31928	
1842	0	33070	35952	27108	31941	
1843	0	33088	36136	27120	31944	
1844	0	33094	36104	27122	31927	
1845	0	33136	36162	27142	31944	
1846	0	33118	36078	27099	31936	
1847	0	33140	36030	27090	31950	
1848	0	33106	36058	27077	31982	
1849	0	33069	36069	27109	31950	
1850	0	33034	36082	27098	31958	
1851	0	33020	36134	27086	31955	
1852	0	32976	36076	27084	31956	
1853	0	33030	36104	27108	31943	
1854	0	33064	36084	27064	31980	
1855	0	33040	36010	27083	31972	
1856	0	32988	36124	27084	31944	
1857	0	32996	36088	27086	31956	
1858	0	32978	36152	27104	31964	
1859	0	32984	35978	27098	31976	
1860	0	32968	36136	27106	31971	
1861	0	32928	36100	27114	32000	
1862	0	32930	36083	27109	31988	
1863	0	32968	36132	27124	31968	
1864	0	33000	36062	27127	31994	
1865	0	32962	36062	27140	31996	
1866	0	32964	36173	27128	31967	
1867	0	32963	36000	27146	32004	
1868	0	33004	36104	27136	31980	
1869	0	32974	36014	27129	31988	
1870	0	32938	36142	27132	31970	
1871	0	33026	36122	27126	31986	
1872	0	33056	36088	27133	31982	
1873	0	33112	36032	27156	31990	
1874	0	33149	36130	27136	32012	
1875	0	33136	36202	27156	32000	
1876	0	33063	36056	27162	32024	
1877	0	33056	36060	27157	31996	
1878	0	33060	36140	27162	31988	
1879	0	33076	36106	27150	31982	
1880	0	33056	36020	27165	31972	
1881	0	33004	36068	27162	31996	
1882	0	33016	36156	27162	32002	
1883	0	32996	36116	27170	31986	
1884	0	32976	35962	27180	31982	
1885	0	33000	36128	27168	31998	
1886	0	32988	36168	27184	31976	
1887	0	32992	36070	27150	31974	
1888	0	33063	36006	27160	31962	
1889	0	33084	36046	27178	31956	
1890	0	33056	36058	27150	31972	
1891	0	33044	36142	27172	31951	
1892	0	33008	36122	27176	31948	
1893	0	32956	36004	27124	31952	
1894	0	32880	36058	27168	31964	
1895	0	32908	36058	27174	31952	
1896	0	32916	36058	27168	31972	
1897	0	32898	36056	27139	31971	
1898	0	32900	36080	27152	31984	
1899	0	32968	36121	27148	31988	
1900	0	33030	36138	27134	31960	
1901	0	32980	36036	27150	31962	
1902	0	33034	36130	27136	31953	
1903	0	33134	36104	27138	31971	
1904	0	33160	36061	27138	31956	
1905	0	33169	36128	27140	31966	
1906	0	33160	36048	27138	31960	
1907	0	33124	35996	27136	31980	
1908	0	33090	36032	27148	31958	
1909	0	33082	36104	27144	31970	
1910	0	33032	36108	27156	31948	
1911	0	33048	36066	27164	31977	
1912	0	33074	36122	27161	31982	
1913	0	33090	36040	27164	31946	
1914	0	33146	36016	27144	31972	
1915	0	33160	36124	27164	31974	
1916	0	33186	36023	27136	31976	
1917	0	33208	36175	27146	31994	
1918	0	33232	36076	27154	31959	
1919	0	33202	35976	27132	31948	
1920	0	33220	36060	27148	31974	
1921	0	33189	35952	27126	31992	
1922	0	33176	36060	27125	31984	
1923	0	33154	36024	27164	31980	
1924	0	33110	36058	27160	31960	
1925	0	33030	36028	27169	31928	
1926	0	32718	36084	27153	31956	
1927	0	32092	36028	27160	31978	
1928	0	31708	35988	27166	31944	
1929	0	31888	36098	27156	31930	
1930	0	32021	36132	27126	31946	
1931	0	33090	36120	27154	31978	
1932	0	35390	36046	27176	31954	
1933	0	38548	36312	27152	31976	
1934	0	42700	36288	27171	31964	
1935	0	46294	36182	27181	31956	
1936	0	49424	36260	27156	31952	
1937	0	49122	36272	27144	31940	
1938	0	42848	36212	27154	31966	
1939	0	36070	36120	27136	31960	
1940	0	34456	36048	27144	31938	
1941	0	35354	36164	27116	31944	
1942	0	34626	36228	27118	31924	
1943	0	33648	36165	27100	31944	
1944	0	32670	36036	27083	31932	
1945	0	31976	35974	27084	31940	
1946	0	31500	35856	27087	31956	
1947	0	31138	36018	27138	31952	
1948	0	30956	35946	27140	31964	
1949	0	30876	35964	27160	31960	
1950	0	30811	36014	27172	31938	
1951	0	30757	35940	27156	31922	
1952	0	30750	36072	27176	31914	
1953	0	30734	35864	27170	31968	
1954	0	30739	35858	27216	31948	
1955	0	30820	35998	27232	31977	
1956	0	30880	36020	27248	31970	
1957	0	30954	35926	27208	31950	
1958	0	30976	36020	27209	31956	
1959	0	31044	36084	27164	31948	
1960	0	31082	36186	27145	31924	
1961	0	31080	36149	27133	31886	
1962	0	31078	36168	27147	31900	
1963	0	31056	36104	27140	31892	
1964	0	31110	36160	27112	31902	
1965	0	31146	36026	27108	31927	
1966	0	31184	35992	27140	31918	
1967	0	31208	36158	27148	31944	
1968	0	31216	36026	27136	31936	
1969	0	31241	36102	27148	31960	
1970	0	31254	36080	27144	31964	
1971	0	31268	36056	27098	31976	
1972	0	31328	36116	27144	31962	
1973	0	31374	35990	27130	31958	
1974	0	31420	36108	27162	31954	
1975	0	31402	36156	27122	31960	
1976	0	31422	36036	27114	31938	
1977	0	31426	35948	27112	31938	
1978	0	31436	36008	27076	31946	
1979	0	31480	35984	27090	31916	
1980	0	31508	35952	27108	31896	
1981	0	31514	36008	27112	31906	
1982	0	31492	35987	27114	31921	
1983	0	31524	35904	27102	31925	
1984	0	31554	35964	27125	31934	
1985	0	31520	36162	27131	31944	
1986	0	31526	36004	27134	31916	
1987	0	31574	36062	27121	31930	
1988	0	31566	36054	27128	31964	
1989	0	31514	35996	27126	31934	
1990	0	31480	36004	27134	31956	
1991	0	31482	36056	27149	31952	
1992	0	31418	36020	27138	31970	
1993	0	31376	36104	27138	31968	
1994	0	31342	36170	27122	31951	
1995	0	31356	36014	27146	31978	
1996	0	31364	36002	27120	31990	
1997	0	31276	35986	27132	31952	
1998	0	31218	36073	27124	31948	
1999	0	31246	36116	27124	31960	
2000	0	31179	35953	27162	31952	
2001	0	31118	36056	27152	31941	
2002	0	31137	35908	27139	31956	
2003	0	31222	35990	27144	31952	
2004	0	31266	36112	27132	31928	
2005	0	31286	36072	27154	31962	
2006	0	31288	35954	27132	31932	
2007	0	31320	36016	27132	31924	
2008	0	31406	36042	27118	31944	
2009	0	31444	36072	27145	31956	
2010	0	31573	36119	27120	31930	
2011	0	31616	36010	27142	31926	
2012	0	31656	36062	27145	31922	
2013	0	31760	36052	27143	31938	
2014	0	31867	36170	27116	31948	
2015	0	32044	36019	27141	31956	
2016	0	32156	36165	27124	31946	
2017	0	32312	36136	27158	31924	
2018	0	32388	36148	27104	31920	
2019	0	32480	36000	27128	31915	
2020	0	32560	36092	27142	31936	
2021	0	32596	36111	27145	31938	
2022	0	32610	36074	27127	31914	
2023	0	32696	36106	27136	31954	
2024	0	32782	36032	27148	31932	
2025	0	32764	36158	27120	31944	
2026	0	32802	36061	27142	31937	
2027	0	32848	36080	27164	31966	
2028	0	32904	36001	27152	31960	
2029	0	32874	35864	27161	31960	
2030	0	32904	35980	27124	31949	
2031	0	32876	36050	27148	31944	
2032	0	32896	35968	27164	31946	
2033	0	32890	36052	27170	31944	
2034	0	32906	35952	27198	31940	
2035	0	32858	36060	27176	31942	
2036	0	32834	36112	27140	31952	
2037	0	32834	36014	27170	31904	
2038	0	32844	36012	27138	31906	
2039	0	32788	36092	27136	31936	
2040	0	32848	35996	27173	31952	
2041	0	32808	36064	27149	31935	
2042	0	32820	35946	27138	31942	
2043	0	32822	36070	27136	31962	
2044	0	32804	36084	27144	31928	
2045	0	32865	36020	27164	31928	
2046	0	32908	35960	27132	31900	
2047	0	32892	35968	27150	31932	
2048	0	32880	35978	27144	31932	
2049	0	32912	36112	27144	31936	
2050	0	32896	35931	27126	31948	
2051	0	32924	36058	27144	31988	
2052	0	32950	36028	27112	31960	
2053	0	32964	36106	27124	31988	
2054	0	32984	36096	27074	31994	
2055	0	32956	35984	27090	32032	
2056	0	32964	36135	27118	32036	
2057	0	33035	36088	27100	32021	
2058	0	33024	36056	27104	31986	
2059	0	32974	36004	27116	31988	
2060	0	32956	36128	27096	31978	
2061	0	32938	36039	27112	31992	
2062	0	32952	36128	27125	31972	
2063	0	32926	36156	27116	31992	
2064	0	32920	36080	27136	31988	
2065	0	32932	36114	27088	31962	
2066	0	32920	36077	27104	31993	
2067	0	32890	36142	27116	31991	
2068	0	32880	36084	27124	31978	
2069	0	32940	36116	27110	32012	
2070	0	32938	36112	27120	32008	
2071	0	32898	36244	27108	32000	
2072	0	32884	36104	27132	32000	
2073	0	32868	36224	27116	32008	
2074	0	32812	36096	27138	32007	
2075	0	32822	36026	27126	32000	
2076	0	32802	35985	27126	31998	
2077	0	32832	35920	27132	31999	
2078	0	32812	36096	27116	31996	
2079	0	32828	36080	27136	32012	
2080	0	32852	36058	27124	32018	
2081	0	32836	36128	27168	32020	
2082	0	32814	36068	27132	31983	
2083	0	32864	36012	27162	32004	
2084	0	32852	36004	27168	31996	
2085	0	32832	35924	27160	32004	
2086	0	32832	36078	27192	32000	
2087	0	32864	36028	27165	32000	
2088	0	32856	36008	27173	31992	
2089	0	32866	36040	27176	31990	
2090	0	32880	36068	27140	31998	
2091	0	32908	36052	27160	31962	
2092	0	32936	36139	27152	31960	
2093	0	32964	36032	27152	31976	
2094	0	32976	36048	27160	31972	
2095	0	32968	35962	27168	31968	
2096	0	33000	36116	27130	31970	
2097	0	33080	35943	27154	31964	
2098	0	33072	36062	27140	31952	
2099	0	33080	36180	27150	31968	
2100	0	33076	36136	27122	31952	
2101	0	33076	36054	27118	31948	
2102	0	33083	35944	27130	31948	
2103	0	33066	35938	27153	31952	
2104	0	33072	36066	27153	31966	
2105	0	33066	36004	27170	31930	
2106	0	33016	36084	27150	31916	
2107	0	33008	36048	27140	31926	
2108	0	33006	35908	27152	31904	
2109	0	33006	36048	27138	31956	
2110	0	32996	36004	27171	31932	
2111	0	33064	36068	27152	31920	
2112	0	33152	36020	27116	31925	
2113	0	33178	36006	27144	31916	
2114	0	33230	36040	27133	31912	
2115	0	33290	36044	27124	31914	
2116	0	33328	36160	27119	31917	
2117	0	33390	35956	27131	31920	
2118	0	33386	36084	27128	31896	
2119	0	33364	36054	27126	31924	
2120	0	33360	36042	27128	31918	
2121	0	33348	36005	27132	31892	
2122	0	33304	36084	27146	31906	
2123	0	33258	36246	27120	31898	
2124	0	33300	36016	27131	31892	
2125	0	33296	36080	27145	31908	
2126	0	33312	36094	27146	31911	
2127	0	33370	36060	27125	31880	
2128	0	33364	36120	27157	31902	
2129	0	33362	35960	27142	31902	
2130	0	33392	36068	27162	31916	
2131	0	33396	36010	27148	31912	
2132	0	33384	36020	27146	31912	
2133	0	33364	36072	27148	31900	
2134	0	33393	35920	27144	31893	
2135	0	33424	35980	27128	31880	
2136	0	33487	36014	27154	31894	
2137	0	33416	35956	27128	31908	
2138	0	33130	36032	27136	31896	
2139	0	32518	36170	27145	31880	
2140	0	32044	36022	27108	31876	
2141	0	32098	36072	27144	31900	
2142	0	32008	36098	27125	31896	
2143	0	32736	36100	27130	31906	
2144	0	34824	36120	27159	31910	
2145	0	37980	36232	27152	31882	
2146	0	42306	36244	27156	31892	
2147	0	45984	36332	27136	31900	
2148	0	49040	36166	27152	31900	
2149	0	49692	36104	27154	31906	
2150	0	44494	36352	27156	31904	
2151	0	38248	36136	27138	31921	
2152	0	35380	36122	27121	31876	
2153	0	36200	36178	27112	31900	
2154	0	35332	36299	27108	31889	
2155	0	34140	36216	27094	31886	
2156	0	33114	36048	27054	31888	
2157	0	32356	35960	27080	31896	
2158	0	31824	35844	27092	31900	
2159	0	31516	35908	27125	31916	
2160	0	31332	35992	27166	31916	
2161	0	31302	36234	27186	31898	
2162	0	31232	36092	27202	31892	
2163	0	31160	35944	27160	31898	
2164	0	31166	35952	27140	31876	
2165	0	31200	35944	27159	31872	
2166	0	31218	35968	27180	31902	
2167	0	31224	36128	27176	31924	
2168	0	31264	35956	27212	31921	
2169	0	31326	36004	27208	31904	
2170	0	31372	35924	27176	31895	
2171	0	31469	36160	27146	31920	
2172	0	31529	36064	27144	31902	
2173	0	31540	36112	27120	31900	
2174	0	31572	36088	27104	31878	
2175	0	31572	35984	27104	31892	
2176	0	31610	36006	27115	31900	
2177	0	31618	36046	27108	31898	
2178	0	31603	35948	27144	31897	
2179	0	31584	36078	27152	31924	
2180	0	31564	36216	27164	31904	
2181	0	31592	35958	27156	31906	
2182	0	31560	35932	27184	31896	
2183	0	31574	36084	27170	31892	
2184	0	31630	36166	27158	31918	
2185	0	31616	35972	27172	31906	
2186	0	31660	36012	27151	31899	
2187	0	31680	36106	27142	31912	
2188	0	31742	36014	27132	31896	
2189	0	31782	36046	27136	31934	
2190	0	31808	36032	27111	31918	
2191	0	31824	36008	27106	31904	
2192	0	31872	36074	27083	31904	
2193	0	31897	36002	27104	31893	
2194	0	31870	35982	27090	31880	
2195	0	31882	36122	27098	31884	
2196	0	31934	35984	27096	31904	
2197	0	31944	35982	27094	31912	
2198	0	31920	35978	27108	31882	
2199	0	31892	36182	27106	31912	
2200	0	31920	36054	27080	31920	
2201	0	31956	36076	27078	31912	
2202	0	31972	36026	27072	31918	
2203	0	32026	35986	27072	31924	
2204	0	32016	35890	27104	31934	
2205	0	32018	36202	27084	31938	
2206	0	31950	36080	27120	31912	
2207	0	31980	36036	27112	31921	
2208	0	31942	35862	27130	31892	
2209	0	31956	35952	27120	31920	
2210	0	31910	36128	27112	31904	
2211	0	31892	36062	27136	31938	
2212	0	31912	36132	27132	31896	
2213	0	31908	35972	27113	31893	
2214	0	31913	36098	27140	31922	
2215	0	31936	36028	27133	31912	
2216	0	31964	35992	27156	31928	
2217	0	31967	36002	27136	31922	
2218	0	32044	35952	27126	31918	
2219	0	32098	35857	27133	31948	
2220	0	32094	36002	27128	31930	
2221	0	32155	36044	27130	31924	
2222	0	32182	36096	27127	31926	
2223	0	32244	36038	27150	31924	
2224	0	32336	36145	27136	31913	
2225	0	32404	36102	27128	31888	
2226	0	32489	35888	27133	31892	
2227	0	32570	36098	27142	31914	
2228	0	32662	36130	27160	31910	
2229	0	32796	36040	27146	31918	
2230	0	32960	36020	27136	31922	
2231	0	33050	36008	27124	31898	
2232	0	33096	36120	27106	31924	
2233	0	33206	36104	27122	31932	
2234	0	33252	36012	27124	31901	
2235	0	33306	36096	27106	31913	
2236	0	33344	35928	27130	31906	
2237	0	33374	35946	27136	31928	
2238	0	33432	36032	27128	31888	
2239	0	33450	36024	27140	31900	
2240	0	33488	36108	27118	31890	
2241	0	33486	35978	27138	31904	
2242	0	33486	36064	27144	31906	
2243	0	33472	36056	27121	31877	
2244	0	33464	36206	27116	31914	
2245	0	33460	36110	27150	31924	
2246	0	33464	35982	27128	31944	
2247	0	33496	36088	27128	31920	
2248	0	33480	36076	27128	31908	
2249	0	33448	35976	27096	31908	
2250	0	33482	35874	27096	31892	
2251	0	33480	36072	27118	31901	
2252	0	33420	35952	27150	31922	
2253	0	33422	36070	27112	31916	
2254	0	33384	35948	27136	31918	
2255	0	33396	35942	27140	31912	
2256	0	33366	35856	27141	31896	
2257	0	33372	35875	27154	31886	
2258	0	33398	35948	27140	31896	
2259	0	33424	35940	27144	31882	
2260	0	33408	36072	27140	31920	
2261	0	33442	36074	27136	31879	
2262	0	33426	35916	27136	31892	
2263	0	33466	36132	27126	31886	
2264	0	33506	36128	27125	31898	
2265	0	33496	35946	27118	31890	
2266	0	33492	36042	27120	31896	
2267	0	33528	36004	27162	31912	
2268	0	33506	35988	27112	31910	
2269	0	33514	36008	27134	31904	
2270	0	33480	36084	27126	31911	
2271	0	33434	35966	27140	31920	
2272	0	33408	35977	27112	31919	
2273	0	33408	35916	27098	31910	
2274	0	33376	35928	27126	31892	
2275	0	33420	35968	27076	31905	
2276	0	33408	36106	27095	31912	
2277	0	33424	36082	27082	31912	
2278	0	33418	36046	27080	31896	
2279	0	33450	36090	27094	31892	
2280	0	33386	36130	27077	31918	
2281	0	33412	36050	27084	31926	
2282	0	33380	36058	27102	31898	
2283	0	33328	35994	27096	31912	
2284	0	33328	35932	27136	31920	
2285	0	33294	36100	27114	31908	
2286	0	33302	35820	27100	31892	
2287	0	33262	36034	27100	31924	
2288	0	33248	35900	27102	31898	
2289	0	33264	36120	27112	31900	
2290	0	33230	36080	27130	31934	
2291	0	33212	35990	27122	31892	
2292	0	33184	35996	27114	31922	
2293	0	33152	36084	27124	31900	
2294	0	33194	36016	27096	31932	
2295	0	33102	36136	27097	31936	
2296	0	33112	36036	27136	31932	
2297	0	33094	36028	27132	31918	
2298	0	33074	36106	27130	31928	
2299	0	33064	36076	27164	31920	
2300	0	33002	36072	27150	31918	
2301	0	32926	36110	27156	31914	
2302	0	32968	36058	27168	31905	
2303	0	32940	36085	27142	31900	
2304	0	32924	36034	27118	31928	
2305	0	32935	36062	27130	31928	
2306	0	32920	36010	27132	31924	
2307	0	32914	36049	27144	31912	
2308	0	32892	36076	27118	31896	
2309	0	32840	36014	27132	31899	
2310	0	32792	36004	27150	31914	
2311	0	32756	36084	27132	31886	
2312	0	32760	36092	27137	31893	
2313	0	32768	36052	27138	31884	
2314	0	32762	36164	27112	31906	
2315	0	32777	36148	27109	31912	
2316	0	32840	36116	27120	31909	
2317	0	32810	36064	27128	31902	
2318	0	32736	36060	27112	31900	
2319	0	32816	35916	27138	31920	
2320	0	32768	35989	27126	31905	
2321	0	32736	35992	27132	31896	
2322	0	32670	35988	27136	31918	
2323	0	32692	36040	27104	31924	
2324	0	32627	36022	27118	31918	
2325	0	32636	35976	27126	31912	
2326	0	32595	35976	27130	31908	
2327	0	32574	35978	27152	31928	
2328	0	32600	36012	27132	31886	
2329	0	32555	36049	27140	31910	
2330	0	32662	35972	27106	31920	
2331	0	32640	35944	27104	31904	
2332	0	32646	35880	27112	31934	
2333	0	32628	36076	27120	31908	
2334	0	32640	35992	27118	31908	
2335	0	32652	36111	27124	31892	
2336	0	32640	36060	27150	31908	
2337	0	32602	36046	27112	31914	
2338	0	32615	36136	27114	31890	
2339	0	32624	36006	27106	31914	
2340	0	32620	35962	27138	31908	
2341	0	32604	35998	27130	31892	
2342	0	32624	35990	27098	31900	
2343	0	32620	36008	27096	31913	
2344	0	32622	36028	27126	31909	
2345	0	32565	36052	27121	31898	
2346	0	32582	36004	27100	31908	
2347	0	32574	36043	27132	31904	
2348	0	32572	35928	27120	31924	
2349	0	32514	35960	27126	31888	
2350	0	32492	36042	27132	31884	
2351	0	32466	36058	27104	31896	
2352	0	32478	35982	27122	31912	
2353	0	32412	36000	27094	31926	
2354	0	32406	35992	27102	31884	
2355	0	32456	35996	27103	31918	
2356	0	32465	36076	27138	31917	
2357	0	32484	36038	27142	31916	
2358	0	32496	36008	27120	31904	
2359	0	32498	36052	27112	31896	
2360	0	32566	35998	27114	31893	
2361	0	32558	36056	27121	31876	
2362	0	32588	36060	27124	31896	
2363	0	32660	36066	27144	31872	
2364	0	32660	36034	27117	31896	
2365	0	32692	36077	27121	31884	
2366	0	32638	36072	27138	31908	
2367	0	32608	36010	27127	31894	
2368	0	32640	36116	27104	31912	
2369	0	32584	36110	27136	31904	
2370	0	32572	35962	27128	31882	
2371	0	32576	36066	27116	31909	
2372	0	32578	36190	27153	31924	
2373	0	32562	36124	27124	31908	
2374	0	32568	35954	27122	31898	
2375	0	32561	36150	27122	31903	
2376	0	32504	36114	27128	31914	
2377	0	32444	35930	27118	31916	
2378	0	32400	35928	27140	31920	
2379	0	32432	36064	27132	31912	
2380	0	32414	36088	27124	31906	
2381	0	32464	35968	27144	31910	
2382	0	32452	35984	27106	31896	
2383	0	32306	35968	27118	31912	
2384	0	31820	35960	27119	31908	
2385	0	31304	35924	27152	31924	
2386	0	31216	36086	27146	31900	
2387	0	31124	36004	27144	31900	
2388	0	31704	36043	27144	31934	
2389	0	33516	36032	27142	31892	
2390	0	36480	36152	27127	31900	
2391	0	40468	36300	27146	31928	
2392	0	43908	36384	27168	31890	
2393	0	46698	36128	27124	31898	
2394	0	47744	36180	27138	31906	
2395	0	43586	36328	27154	31896	
2396	0	38152	36168	27098	31894	
2397	0	34799	36144	27108	31884	
2398	0	35552	36092	27080	31902	
2399	0	34624	36052	27106	31881	
2400	0	33380	36080	27072	31884	
2401	0	32342	36052	27060	31882	
2402	0	31582	36036	27082	31912	
2403	0	31161	35916	27093	31908	
2404	0	30792	35804	27111	31928	
2405	0	30568	35960	27132	31936	
2406	0	30516	36128	27188	31895	
2407	0	30460	36079	27192	31892	
2408	0	30458	35972	27172	31882	
2409	0	30496	35912	27149	31882	
2410	0	30466	35888	27178	31924	
2411	0	30512	36112	27204	31932	
2412	0	30570	36088	27210	31928	
2413	0	30628	36004	27188	31920	
2414	0	30678	35960	27162	31882	
2415	0	30716	36015	27138	31904	
2416	0	30704	36130	27104	31901	
2417	0	30796	36008	27096	31910	
2418	0	30802	36095	27096	31908	
2419	0	30832	36164	27071	31916	
2420	0	30837	36000	27080	31920	
2421	0	30904	35964	27110	31910	
2422	0	30876	36024	27086	31918	
2423	0	30871	36078	27100	31916	
2424	0	30852	36034	27118	31908	
2425	0	30908	36076	27124	31882	
2426	0	30944	36078	27136	31908	
2427	0	30976	35952	27132	31900	
2428	0	31031	36032	27122	31880	
2429	0	31076	36088	27102	31880	
2430	0	31105	36054	27112	31916	
2431	0	31128	35978	27116	31906	
2432	0	31112	35976	27082	31897	
2433	0	31164	35942	27104	31892	
2434	0	31258	36021	27108	31920	
2435	0	31244	35877	27108	31908	
2436	0	31284	36112	27106	31894	
2437	0	31318	35930	27100	31914	
2438	0	31288	36024	27120	31888	
2439	0	31280	35954	27106	31872	
2440	0	31300	36030	27096	31864	
2441	0	31332	35892	27108	31874	
2442	0	31256	35952	27121	31892	
2443	0	31295	36044	27114	31894	
2444	0	31314	35892	27104	31890	
2445	0	31272	35932	27082	31910	
2446	0	31264	36052	27084	31906	
2447	0	31290	35972	27118	31900	
2448	0	31270	36124	27111	31902	
2449	0	31292	35882	27106	31906	
2450	0	31244	36116	27124	31900	
2451	0	31242	36024	27139	31902	
2452	0	31268	36072	27120	31896	
2453	0	31280	36056	27118	31892	
2454	0	31276	36112	27124	31908	
2455	0	31266	36091	27132	31904	
2456	0	31258	36110	27124	31882	
2457	0	31224	35976	27095	31904	
2458	0	31247	35978	27114	31892	
2459	0	31220	35880	27118	31879	
2460	0	31242	36116	27135	31848	
2461	0	31316	36065	27128	31904	
2462	0	31326	36096	27120	31906	
2463	0	31316	36052	27132	31898	
2464	0	31348	35932	27113	31888	
2465	0	31396	36040	27144	31918	
2466	0	31428	36013	27120	31910	
2467	0	31472	36038	27138	31912	
2468	0	31520	36130	27133	31897	
2469	0	31598	35898	27127	31880	
2470	0	31626	36124	27124	31887	
2471	0	31701	36052	27114	31884	
2472	0	31798	36108	27132	31906	
2473	0	31864	36018	27148	31889	
2474	0	31956	35992	27136	31900	
2475	0	32090	36010	27118	31895	
2476	0	32186	35968	27140	31908	
2477	0	32266	36086	27138	31900	
2478	0	32345	35924	27136	31906	
2479	0	32458	36104	27125	31874	
2480	0	32556	36016	27112	31900	
2481	0	32622	36096	27120	31918	
2482	0	32688	35916	27124	31899	
2483	0	32752	36056	27112	31884	
2484	0	32790	36052	27118	31867	
2485	0	32804	36136	27123	31870	
2486	0	32790	35948	27136	31856	
2487	0	32832	36058	27109	31882	
2488	0	32880	36036	27102	31896	
2489	0	32908	36148	27104	31920	
2490	0	32908	36020	27110	31932	
2491	0	32840	35986	27115	31914	
2492	0	32826	36120	27124	31908	
2493	0	32832	36108	27126	31900	
2494	0	32800	35975	27128	31889	
2495	0	32838	35978	27102	31896	
2496	0	32858	36087	27124	31898	
2497	0	32802	36044	27106	31898	
2498	0	32812	35954	27110	31888	
2499	0	32776	36088	27124	31892	
2500	0	32792	35984	27114	31894	
2501	0	32785	36026	27116	31898	
2502	0	32804	35896	27109	31904	
2503	0	32760	35888	27106	31872	
2504	0	32772	36096	27117	31862	
2505	0	32800	35888	27108	31883	
2506	0	32792	36053	27090	31884	
2507	0	32784	35962	27120	31890	
2508	0	32792	35992	27104	31922	
2509	0	32768	36052	27118	31888	
2510	0	32762	36073	27108	31884	
2511	0	32848	35974	27118	31910	
2512	0	32866	36024	27090	31884	
2513	0	32854	35913	27118	31896	
2514	0	32842	36020	27102	31904	
2515	0	32846	36030	27088	31900	
2516	0	32922	36066	27084	31897	
2517	0	32862	36076	27110	31910	
2518	0	32878	36084	27088	31904	
2519	0	32876	36070	27104	31920	
2520	0	32848	35980	27106	31906	
2521	0	32844	35930	27098	31910	
2522	0	32833	35904	27094	31900	
2523	0	32819	35964	27080	31916	
2524	0	32854	36112	27092	31908	
2525	0	32855	36006	27086	31882	
2526	0	32788	36008	27072	31916	
2527	0	32746	36013	27080	31912	
2528	0	32742	35991	27100	31892	
2529	0	32752	36122	27112	31912	
2530	0	32785	36004	27108	31899	
2531	0	32805	36040	27090	31912	
2532	0	32804	36064	27090	31910	
2533	0	32820	36025	27124	31884	
2534	0	32788	35964	27082	31904	
2535	0	32780	36046	27096	31920	
2536	0	32744	35968	27088	31917	
2537	0	32728	36096	27088	31920	
2538	0	32715	35932	27096	31910	
2539	0	32688	35916	27096	31920	
2540	0	32664	35929	27112	31924	
2541	0	32668	35990	27087	31912	
2542	0	32684	35975	27082	31912	
2543	0	32638	36092	27098	31902	
2544	0	32512	36068	27104	31896	
2545	0	32522	35916	27094	31912	
2546	0	32472	36026	27080	31872	
2547	0	32408	36036	27114	31908	
2548	0	32440	36013	27114	31908	
2549	0	32428	36034	27114	31882	
2550	0	32402	36044	27103	31914	
2551	0	32410	36000	27114	31902	
2552	0	32472	35908	27108	31916	
2553	0	32472	36084	27130	31894	
2554	0	32448	35952	27084	31880	
2555	0	32420	35836	27076	31888	
2556	0	32424	35986	27132	31892	
2557	0	32444	35952	27146	31914	
2558	0	32408	36000	27120	31904	
2559	0	32406	36020	27120	31900	
2560	0	32376	36004	27108	31872	
2561	0	32362	36086	27130	31888	
2562	0	32385	36008	27100	31910	
2563	0	32430	36084	27109	31918	
2564	0	32408	36037	27104	31892	
2565	0	32452	36032	27128	31918	
2566	0	32468	35964	27128	31908	
2567	0	32476	36074	27128	31906	
2568	0	32484	36068	27140	31912	
2569	0	32522	36036	27124	31920	
2570	0	32512	35948	27156	31928	
2571	0	32520	36028	27124	31922	
2572	0	32514	36110	27120	31896	
2573	0	32480	36012	27153	31922	
2574	0	32444	36098	27154	31924	
2575	0	32430	36064	27137	31898	
2576	0	32412	35968	27138	31896	
2577	0	32478	36066	27138	31904	
2578	0	32436	35952	27128	31882	
2579	0	32430	36084	27138	31912	
2580	0	32425	36000	27112	31932	
2581	0	32462	35944	27134	31904	
2582	0	32511	35996	27152	31906	
2583	0	32487	36150	27158	31896	
2584	0	32472	35954	27138	31932	
2585	0	32442	36040	27144	31913	
2586	0	32460	35996	27142	31901	
2587	0	32470	36008	27162	31886	
2588	0	32480	36006	27138	31863	
2589	0	32472	36086	27153	31904	
2590	0	32538	35920	27130	31908	
2591	0	32591	35946	27132	31906	
2592	0	32564	36028	27152	31904	
2593	0	32540	35968	27144	31919	
2594	0	32458	35978	27168	31904	
2595	0	32398	35956	27146	31914	
2596	0	32376	36100	27138	31892	
2597	0	32406	35992	27150	31904	
2598	0	32370	36075	27149	31888	
2599	0	32350	35920	27172	31880	
2600	0	32424	35988	27164	31896	
2601	0	32432	36040	27138	31899	
2602	0	32436	35978	27140	31876	
2603	0	32366	35916	27114	31882	
2604	0	32347	36152	27134	31882	
2605	0	32302	36128	27162	31894	
2606	0	32320	36028	27124	31876	
2607	0	32336	36050	27164	31904	
2608	0	32350	36052	27140	31884	
2609	0	32444	36040	27157	31912	
2610	0	32498	36060	27132	31882	
2611	0	32572	36041	27158	31892	
2612	0	32538	36000	27154	31903	
2613	0	32482	36100	27131	31906	
2614	0	32462	36056	27106	31887	
2615	0	32424	36102	27135	31880	
2616	0	32474	36000	27134	31889	
2617	0	32522	36036	27136	31904	
2618	0	32552	36034	27136	31894	
2619	0	32622	36000	27140	31888	
2620	0	32652	36000	27160	31904	
2621	0	32648	36060	27152	31898	
2622	0	32666	36028	27152	31868	
2623	0	32574	35982	27140	31860	
2624	0	32522	36016	27138	31894	
2625	0	32508	35980	27120	31916	
2626	0	32572	36060	27153	31931	
2627	0	32564	35962	27164	31936	
2628	0	32210	35954	27147	31916	
2629	0	31656	36048	27136	31924	
2630	0	31201	36036	27120	31912	
2631	0	31298	35990	27176	31920	
2632	0	31415	36034	27150	31908	
2633	0	32348	36132	27150	31932	
2634	0	34470	36076	27166	31924	
2635	0	37399	36180	27176	31926	
2636	0	41240	36228	27172	31926	
2637	0	44538	36416	27194	31932	
2638	0	47184	36304	27234	31882	
2639	0	47156	36256	27196	31886	
2640	0	41930	36230	27184	31906	
2641	0	35744	36014	27198	31940	
2642	0	33904	36034	27178	31918	
2643	0	34898	36058	27150	31924	
2644	0	34146	36146	27148	31904	
2645	0	33182	36224	27122	31882	
2646	0	32280	36106	27120	31924	
2647	0	31528	35874	27144	31948	
2648	0	31080	35858	27162	31978	
2649	0	30806	35908	27185	31960	
2650	0	30628	36034	27166	31936	
2651	0	30556	36152	27194	31920	
2652	0	30508	36160	27189	31876	
2653	0	30490	36106	27164	31892	
2654	0	30432	35860	27170	31872	
2655	0	30425	35860	27146	31941	
2656	0	30446	35904	27170	31956	
2657	0	30504	36080	27232	31960	
2658	0	30564	35970	27205	31968	
2659	0	30542	35884	27204	31958	
2660	0	30560	35944	27182	31956	
2661	0	30567	36036	27152	31932	
2662	0	30688	36148	27112	31882	
2663	0	30784	35982	27094	31867	
2664	0	30852	36008	27090	31864	
2665	0	30896	36092	27086	31848	
2666	0	30900	35972	27058	31872	
2667	0	30936	36084	27070	31892	
2668	0	30993	36030	27054	31908	
2669	0	30978	36168	27036	31902	
2670	0	31034	36054	27040	31898	
2671	0	31144	36010	27032	31914	
2672	0	31128	35940	27036	31912	
2673	0	31200	36060	27039	31892	
2674	0	31240	35994	27020	31882	
2675	0	31287	36054	27056	31873	
2676	0	31346	36028	27054	31897	
2677	0	31356	36040	27072	31899	
2678	0	31362	35984	27065	31880	
2679	0	31359	36012	27120	31880	
2680	0	31364	35976	27108	31860	
2681	0	31410	36080	27136	31896	
2682	0	31452	36080	27086	31892	
2683	0	31490	35994	27072	31908	
2684	0	31472	35912	27090	31910	
2685	0	31503	36032	27096	31904	
2686	0	31552	36010	27112	31930	
2687	0	31568	36080	27120	31912	
2688	0	31628	35880	27101	31930	
2689	0	31594	35972	27140	31926	
2690	0	31529	36015	27126	31906	
2691	0	31516	36046	27140	31948	
2692	0	31596	36120	27113	31944	
2693	0	31592	36100	27144	31940	
2694	0	31604	35980	27156	31929	
2695	0	31604	35994	27172	31908	
2696	0	31516	36044	27172	31924	
2697	0	31434	36078	27173	31922	
2698	0	31410	36041	27176	31920	
2699	0	31424	35986	27178	31908	
2700	0	31473	36000	27186	31926	
2701	0	31410	36054	27188	31930	
2702	0	31376	36038	27206	31938	
2703	0	31364	36080	27209	31940	
2704	0	31392	36048	27206	31956	
2705	0	31386	36062	27206	31932	
2706	0	31384	35932	27200	31944	
2707	0	31392	36152	27218	31933	
2708	0	31366	36048	27194	31924	
2709	0	31320	36028	27188	31946	
2710	0	31382	36081	27184	31944	
2711	0	31508	36084	27194	31964	
2712	0	31524	36158	27184	31944	
2713	0	31458	36116	27176	31952	
2714	0	31500	36168	27194	31956	
2715	0	31614	36116	27173	31952	
2716	0	31686	36132	27174	31956	
2717	0	31772	36177	27180	31954	
2718	0	31806	36100	27158	31951	
2719	0	31847	36200	27170	31977	
2720	0	32016	36110	27166	31968	
2721	0	32092	36072	27196	31996	
2722	0	32224	36178	27180	32000	
2723	0	32280	36176	27184	31990	
2724	0	32280	36220	27192	31972	
2725	0	32300	36040	27196	31996	
2726	0	32306	36104	27208	31976	
2727	0	32382	36086	27188	32007	
2728	0	32318	36194	27208	31988	
2729	0	32316	36212	27214	32008	
2730	0	32392	36020	27228	32000	
2731	0	32464	36110	27221	31994	
2732	0	32448	36214	27261	32000	
2733	0	32504	36184	27250	31988	
2734	0	32472	36190	27270	31972	
2735	0	32376	36110	27264	32002	
2736	0	32384	36168	27249	31980	
2737	0	32408	36180	27256	31974	
2738	0	32490	36068	27232	31974	
2739	0	32512	36224	27234	32008	
2740	0	32548	36040	27214	31994	
2741	0	32636	36171	27218	31984	
2742	0	32646	36131	27224	32014	
2743	0	32656	36250	27238	31990	
2744	0	32714	36040	27198	32004	
2745	0	32720	36162	27188	31974	
2746	0	32614	36120	27188	31944	
2747	0	32612	36136	27196	31952	
2748	0	32652	36156	27200	31952	
2749	0	32728	36078	27192	31953	
2750	0	32832	36115	27160	31930	
2751	0	32837	36144	27140	31928	
2752	0	32818	36164	27140	31934	
2753	0	32776	36138	27112	31924	
2754	0	32806	36069	27138	31949	
2755	0	32866	36096	27108	31917	
2756	0	32852	35984	27096	31932	
2757	0	32886	36066	27112	31895	
2758	0	32913	36218	27136	31928	
2759	0	32898	35996	27104	31884	
2760	0	32984	36108	27112	31896	
2761	0	33028	36134	27096	31889	
2762	0	33156	36076	27112	31880	
2763	0	33142	36044	27086	31884	
2764	0	33082	36102	27096	31888	
2765	0	33064	36136	27090	31884	
2766	0	33056	36164	27136	31883	
2767	0	33120	36122	27133	31858	
2768	0	33212	35914	27151	31861	
2769	0	33236	36112	27182	31863	
2770	0	33268	36080	27180	31852	
2771	0	33294	36196	27216	31844	
2772	0	33356	36107	27204	31824	
2773	0	33444	36252	27224	31838	
2774	0	33410	36090	27246	31844	
2775	0	33358	36112	27244	31806	
2776	0	33296	36120	27240	31828	
2777	0	33330	36176	27250	31840	
2778	0	33378	36190	27226	31862	
2779	0	33480	36112	27218	31862	
2780	0	33464	36218	27237	31856	
2781	0	33456	36104	27242	31882	
2782	0	33476	36176	27240	31882	
2783	0	33466	36118	27218	31888	
2784	0	33444	36052	27205	31874	
2785	0	33446	36137	27249	31874	
2786	0	33442	36080	27246	31868	
2787	0	33400	36132	27236	31842	
2788	0	33318	36168	27254	31864	
2789	0	33378	36092	27248	31880	
2790	0	33486	36098	27256	31879	
2791	0	33492	36106	27244	31884	
2792	0	33428	36110	27248	31894	
2793	0	33398	36120	27234	31876	
2794	0	33442	36244	27226	31871	
2795	0	33516	36117	27234	31892	
2796	0	33508	36140	27213	31872	
2797	0	33476	36042	27232	31912	
2798	0	33404	36080	27204	31916	
2799	0	33368	36160	27209	31918	
2800	0	33354	36072	27214	31916	
2801	0	33408	36090	27193	31928	
2802	0	33404	36224	27198	31916	
2803	0	33452	36028	27175	31932	
2804	0	33404	36058	27180	31920	
2805	0	33374	36242	27201	31904	
2806	0	33288	36100	27174	31932	
2807	0	33330	36032	27166	31942	
2808	0	33326	36096	27168	31946	
2809	0	33358	36174	27178	31934	
2810	0	33385	36068	27195	31962	
2811	0	33388	36132	27180	31964	
2812	0	33408	36020	27162	31948	
2813	0	33408	36016	27180	31964	
2814	0	33356	36128	27184	31970	
2815	0	33336	36136	27174	31956	
2816	0	33188	36054	27173	31968	
2817	0	33132	36084	27172	31964	
2818	0	33134	36136	27194	31970	
2819	0	33070	36048	27152	31938	
2820	0	33028	36066	27178	31968	
2821	0	33070	36164	27160	31981	
2822	0	33114	36048	27156	31982	
2823	0	33133	36132	27180	31972	
2824	0	33096	36098	27172	31956	
2825	0	33106	36080	27184	31950	
2826	0	33098	36126	27186	31956	
2827	0	33128	36049	27176	31986	
2828	0	33086	36130	27176	31966	
2829	0	33068	36108	27176	31968	
2830	0	33076	36150	27174	31968	
2831	0	33116	36188	27206	31988	
2832	0	33102	36087	27196	31936	
2833	0	33004	36073	27196	31948	
2834	0	32917	36024	27196	31964	
2835	0	32906	36128	27210	31962	
2836	0	32866	36090	27204	31956	
2837	0	32892	36132	27200	31939	
2838	0	32828	36046	27200	31940	
2839	0	32932	36128	27194	31938	
2840	0	32952	36088	27202	31952	
2841	0	32902	36034	27203	31943	
2842	0	32896	36056	27188	31930	
2843	0	32936	36058	27190	31976	
2844	0	32907	36114	27196	31968	
2845	0	32866	36046	27182	31964	
2846	0	32860	36188	27173	31970	
2847	0	32840	36154	27184	31984	
2848	0	32778	36072	27156	31980	
2849	0	32356	36124	27146	31988	
2850	0	31734	36150	27136	31980	
2851	0	31310	36016	27160	31974	
2852	0	31532	36120	27145	31972	
2853	0	31786	36208	27140	31970	
2854	0	32944	36144	27146	31986	
2855	0	35184	36134	27140	31996	
2856	0	38062	36280	27148	32004	
2857	0	41958	36344	27120	31980	
2858	0	45652	36426	27149	32000	
2859	0	48834	36296	27132	31984	
2860	0	48524	36236	27124	31991	
2861	0	42182	36392	27146	31992	
2862	0	34984	36168	27134	32008	
2863	0	33828	36156	27131	31994	
2864	0	34984	36130	27126	32004	
2865	0	34408	36148	27150	32032	
2866	0	33462	36340	27140	32010	
2867	0	32622	36216	27104	31968	
2868	0	31926	35952	27128	31994	
2869	0	31434	35841	27144	32010	
2870	0	31152	35932	27128	32014	
2871	0	31016	35944	27168	32025	
2872	0	30936	35948	27166	32024	
2873	0	30896	36118	27168	32032	
2874	0	30832	36172	27177	32016	
2875	0	30806	35904	27184	31988	
2876	0	30816	35976	27232	32008	
2877	0	30863	36004	27222	32032	
2878	0	30882	35966	27250	32046	
2879	0	30978	35896	27272	32040	
2880	0	31022	36124	27299	32014	
2881	0	31040	36096	27280	31996	
2882	0	31064	36052	27244	31988	
2883	0	31146	36092	27204	31994	
2884	0	31210	36180	27202	31984	
2885	0	31266	36110	27164	31944	
2886	0	31328	36084	27167	31992	
2887	0	31412	36100	27138	32000	
2888	0	31456	36068	27146	32000	
2889	0	31484	36060	27174	32042	
2890	0	31494	36056	27150	32028	
2891	0	31500	36160	27130	32036	
2892	0	31540	36064	27144	32032	
2893	0	31632	36108	27116	32032	
2894	0	31644	36036	27112	32042	
2895	0	31636	36120	27129	32010	
2896	0	31688	36104	27104	32048	
2897	0	31772	36128	27120	32050	
2898	0	31778	36068	27138	32023	
2899	0	31806	36048	27114	31998	
2900	0	31800	36108	27136	32010	
2901	0	31792	36120	27160	32012	
2902	0	31864	36120	27145	32004	
2903	0	31864	36177	27146	31984	
2904	0	31834	36096	27149	31992	
2905	0	31868	36166	27165	32004	
2906	0	31856	36128	27169	32018	
2907	0	31897	35978	27182	32014	
2908	0	31872	36112	27180	31972	
2909	0	31904	36046	27184	32002	
2910	0	31942	36162	27190	32028	
2911	0	31924	36091	27184	31989	
2912	0	31938	36028	27194	31996	
2913	0	31928	36122	27206	32020	
2914	0	31888	36186	27188	32024	
2915	0	31836	36058	27212	31984	
2916	0	31784	36140	27209	31998	
2917	0	31806	36012	27200	31982	
2918	0	31784	36141	27224	31974	
2919	0	31775	36031	27176	31968	
2920	0	31792	36008	27226	31978	
2921	0	31744	35940	27204	31968	
2922	0	31753	36016	27204	31944	
2923	0	31750	36056	27172	31988	
2924	0	31766	35960	27172	31986	
2925	0	31818	36110	27158	31958	
2926	0	31786	36152	27154	31994	
2927	0	31780	36080	27160	31966	
2928	0	31822	36040	27156	31972	
2929	0	31868	36069	27156	31964	
2930	0	31957	36090	27144	31944	
2931	0	31973	36044	27144	31938	
2932	0	32012	36092	27120	31921	
2933	0	32052	36090	27100	31934	
2934	0	32076	36040	27112	31892	
2935	0	32110	36058	27136	31898	
2936	0	32214	36072	27094	31912	
2937	0	32288	36028	27109	31920	
2938	0	32400	36072	27102	31912	
2939	0	32490	36052	27104	31912	
2940	0	32608	36058	27090	31912	
2941	0	32636	36108	27098	31916	
2942	0	32654	36152	27092	31934	
2943	0	32704	36080	27090	31916	
2944	0	32782	36200	27090	31916	
2945	0	32800	36151	27095	31950	
2946	0	32752	36128	27108	31958	
2947	0	32696	36079	27120	31938	
2948	0	32696	36032	27138	31962	
2949	0	32764	35972	27140	31960	
2950	0	32759	36112	27144	31994	
2951	0	32752	36116	27160	31980	
2952	0	32732	35992	27156	31972	
2953	0	32768	36192	27158	31936	
2954	0	32792	36098	27170	31958	
2955	0	32812	36082	27162	31941	
2956	0	32804	36032	27150	31944	
2957	0	32844	36040	27150	31958	
2958	0	32906	36080	27160	32000	
2959	0	32964	36128	27170	31986	
2960	0	32970	36096	27168	31974	
2961	0	32910	36130	27186	31983	
2962	0	32896	36060	27194	31978	
2963	0	32932	36208	27194	31966	
2964	0	32921	36073	27162	31957	
2965	0	32884	36164	27176	31960	
2966	0	32936	36050	27186	31954	
2967	0	32908	36044	27172	31968	
2968	0	32948	36108	27184	31965	
2969	0	32928	36068	27164	31980	
2970	0	32930	36048	27184	31952	
2971	0	32972	36056	27210	31940	
2972	0	32988	36112	27172	31968	
2973	0	32994	36196	27181	31976	
2974	0	33020	36190	27210	31988	
2975	0	32992	36088	27186	31993	
2976	0	33012	36032	27158	31980	
2977	0	33030	36052	27184	31972	
2978	0	33078	36023	27176	31970	
2979	0	33060	36108	27156	32002	
2980	0	33028	36048	27152	31998	
2981	0	33086	36092	27168	31996	
2982	0	33104	36170	27170	31984	
2983	0	33146	36230	27148	31984	
2984	0	33124	36216	27122	31992	
2985	0	33108	36080	27152	32000	
2986	0	33084	36108	27152	32014	
2987	0	33082	36134	27174	31960	
2988	0	33069	36110	27144	32000	
2989	0	33066	36146	27122	31974	
2990	0	32977	36120	27158	31978	
2991	0	32996	36216	27144	31992	
2992	0	33004	36069	27182	32001	
2993	0	33040	36124	27149	31992	
2994	0	33012	36196	27157	31978	
2995	0	33029	36104	27150	31991	
2996	0	33002	36150	27140	31992	
2997	0	33000	36116	27132	31976	
2998	0	33000	36094	27140	32023	
2999	0	32956	36096	27173	31986	
3000	0	32932	36179	27158	31989	
3001	0	32954	36032	27152	32006	
3002	0	32970	36110	27162	32002	
3003	0	32968	36028	27163	31998	
3004	0	32940	36046	27192	31980	
3005	0	32868	36056	27186	31968	
3006	0	32844	35986	27202	31980	
3007	0	32767	36120	27164	31962	
3008	0	32752	36138	27168	31980	
3009	0	32740	36058	27175	31992	
3010	0	32756	36052	27180	31986	
3011	0	32752	36042	27170	31972	
3012	0	32780	36151	27184	31972	
3013	0	32744	36056	27188	31962	
3014	0	32752	36214	27172	31983	
3015	0	32812	36080	27191	31958	
3016	0	32812	36072	27168	31980	
3017	0	32768	36116	27188	31976	
3018	0	32778	36166	27156	31976	
3019	0	32780	36096	27198	31980	
3020	0	32774	36200	27184	31994	
3021	0	32692	36110	27196	31964	
3022	0	32724	36024	27144	32000	
3023	0	32696	36047	27186	31984	
3024	0	32740	36084	27178	31960	
3025	0	32690	36050	27164	31976	
3026	0	32750	35934	27184	31968	
3027	0	32780	36124	27156	31960	
3028	0	32836	36072	27154	31959	
3029	0	32814	36028	27154	31962	
3030	0	32736	36048	27172	31978	
3031	0	32696	35978	27136	31984	
3032	0	32656	36186	27160	31992	
3033	0	32660	36101	27160	31970	
3034	0	32666	36082	27156	31982	
3035	0	32632	36068	27164	31980	
3036	0	32640	36188	27134	31972	
3037	0	32734	36087	27164	31983	
3038	0	32788	36016	27160	31946	
3039	0	32816	36036	27156	31968	
3040	0	32874	36092	27138	31978	
3041	0	32936	36052	27164	31974	
3042	0	32892	36194	27184	31960	
3043	0	32956	36226	27148	31948	
3044	0	32966	36100	27160	31958	
3045	0	32976	36180	27136	31978	
3046	0	32952	36140	27148	31978	
3047	0	32880	36144	27162	31964	
3048	0	32868	36120	27150	31958	
3049	0	32936	36088	27162	31984	
3050	0	32948	36136	27162	31958	
3051	0	32934	36172	27160	31948	
3052	0	32952	36008	27186	31968	
3053	0	32968	36162	27169	31970	
3054	0	32910	36128	27168	31978	
3055	0	32940	36112	27168	31968	
3056	0	32933	36096	27182	31968	
3057	0	32980	35948	27208	31946	
3058	0	32948	36128	27192	31951	
3059	0	32996	36085	27178	31968	
3060	0	33056	36114	27180	31933	
3061	0	33065	36080	27212	31952	
3062	0	33045	36120	27156	31957	
3063	0	32899	36100	27152	31956	
3064	0	32389	36092	27178	31970	
3065	0	31904	36114	27165	31968	
3066	0	31756	36139	27176	31930	
3067	0	31785	36044	27196	31946	
3068	0	32180	36105	27186	31924	
3069	0	33776	36154	27198	31932	
3070	0	36468	36168	27168	31940	
3071	0	40309	36250	27162	31934	
3072	0	44308	36368	27184	31948	
3073	0	47524	36248	27186	31932	
3074	0	49548	36226	27198	31930	
3075	0	46288	36218	27168	31946	
3076	0	39962	36236	27182	31920	
3077	0	34798	36090	27165	31936	
3078	0	35414	36272	27151	31908	
3079	0	35332	36140	27145	31954	
3080	0	34217	36226	27162	31944	
3081	0	33156	36196	27143	31910	
3082	0	32300	36004	27140	31914	
3083	0	31696	35992	27146	31944	
3084	0	31340	35876	27154	31936	
3085	0	31116	35972	27184	31956	
3086	0	30984	36113	27206	31960	
3087	0	30942	36000	27226	31920	
3088	0	30930	35968	27228	31916	
3089	0	30972	35956	27234	31898	
3090	0	30934	35924	27262	31930	
3091	0	30971	36116	27240	31944	
3092	0	31032	36008	27290	31932	
3093	0	31116	35998	27254	31962	
3094	0	31205	36044	27252	31949	
3095	0	31224	36068	27224	31934	
3096	0	31282	36012	27210	31932	
3097	0	31360	36086	27182	31944	
3098	0	31386	36208	27150	31932	
3099	0	31448	36224	27142	31960	
3100	0	31440	36032	27106	31964	
3101	0	31444	36102	27128	31946	
3102	0	31470	35948	27130	31960	
3103	0	31518	35961	27136	31990	
3104	0	31573	35930	27115	31953	
3105	0	31577	36078	27128	31981	
3106	0	31600	36014	27084	31990	
3107	0	31592	36012	27092	31988	
3108	0	31580	36116	27114	31994	
3109	0	31602	36032	27118	31984	
3110	0	31648	36004	27100	31984	
3111	0	31692	35971	27114	31984	
3112	0	31752	36016	27112	32008	
3113	0	31754	36078	27062	31994	
3114	0	31796	36094	27081	32004	
3115	0	31812	36034	27079	32007	
3116	0	31792	35968	27070	32023	
3117	0	31836	35944	27060	32032	
3118	0	31844	36012	27038	31996	
3119	0	31896	36034	27044	32020	
3120	0	31865	36032	27060	32004	
3121	0	31848	35920	27070	31998	
3122	0	31823	35992	27065	31992	
3123	0	31826	36036	27074	32012	
3124	0	31804	35988	27088	32016	
3125	0	31796	35912	27070	32005	
3126	0	31749	36027	27087	31986	
3127	0	31708	36028	27056	32034	
3128	0	31684	36047	27078	32008	
3129	0	31664	36066	27086	32004	
3130	0	31676	36068	27116	32024	
3131	0	31656	35980	27098	32004	
3132	0	31637	36034	27098	32020	
3133	0	31602	36058	27106	32018	
3134	0	31550	36056	27080	32016	
3135	0	31528	35962	27084	32052	
3136	0	31506	36020	27106	32016	
3137	0	31534	35962	27072	32052	
3138	0	31584	35972	27072	32040	
3139	0	31540	35990	27078	32046	
3140	0	31584	35996	27060	32044	
3141	0	31597	36026	27093	32050	
3142	0	31600	35968	27065	32032	
3143	0	31712	35926	27058	32058	
3144	0	31760	36044	27066	32076	
3145	0	31766	36072	27096	32064	
3146	0	31814	35982	27048	32074	
3147	0	31858	35988	27050	32063	
3148	0	31892	35909	27056	32071	
3149	0	31970	36056	27060	32054	
3150	0	32088	36096	27062	32052	
3151	0	32196	36026	27094	32057	
3152	0	32344	36027	27078	32060	
3153	0	32444	36040	27080	32064	
3154	0	32544	36004	27078	32044	
3155	0	32636	36108	27064	32044	
3156	0	32736	36136	27080	32056	
3157	0	32746	36020	27076	32064	
3158	0	32828	35952	27071	32046	
3159	0	32898	36004	27116	32042	
3160	0	32944	36088	27100	32048	
3161	0	32976	36088	27128	32052	
3162	0	32990	36088	27144	32048	
3163	0	32965	36016	27118	32024	
3164	0	33014	36068	27136	32048	
3165	0	33050	36040	27156	32042	
3166	0	33042	35974	27162	32022	
3167	0	32976	35952	27150	32016	
3168	0	33042	36106	27156	32000	
3169	0	33034	36156	27170	32022	
3170	0	32988	36066	27180	32056	
3171	0	33054	36080	27182	32040	
3172	0	33082	36188	27178	32042	
3173	0	32952	35992	27208	32026	
3174	0	33018	36050	27172	32020	
3175	0	32976	36000	27188	31992	
3176	0	32988	36120	27166	31980	
3177	0	33002	35988	27206	32000	
3178	0	33008	35980	27198	32000	
3179	0	33088	36136	27186	32020	
3180	0	33100	36158	27186	32016	
3181	0	33128	36100	27200	31988	
3182	0	33122	36098	27194	31972	
3183	0	33167	36144	27232	31970	
3184	0	33163	36040	27212	31970	
3185	0	33084	36166	27210	31936	
3186	0	33136	36106	27208	31940	
3187	0	33146	36072	27230	31942	
3188	0	33155	36188	27200	31944	
3189	0	33154	36108	27186	31976	
3190	0	33162	36142	27196	31942	
3191	0	33166	36092	27176	31972	
3192	0	33184	36013	27212	31960	
3193	0	33204	36004	27164	31978	
3194	0	33200	36088	27184	31974	
3195	0	33160	35960	27160	31986	
3196	0	33172	36044	27174	31992	
3197	0	33172	36025	27162	31980	
3198	0	33182	35995	27144	31982	
3199	0	33208	36002	27132	31962	
3200	0	33234	35968	27118	31972	
3201	0	33184	36010	27128	31964	
3202	0	33188	36082	27128	31941	
3203	0	33142	36074	27136	31936	
3204	0	33130	36076	27120	31943	
3205	0	33162	35988	27108	31928	
3206	0	33152	36036	27096	31906	
3207	0	33076	36090	27092	31930	
3208	0	33040	35948	27108	31920	
3209	0	33084	36034	27120	31910	
3210	0	33038	35988	27114	31934	
3211	0	33068	36036	27142	31940	
3212	0	33060	36099	27125	31930	
3213	0	33032	36146	27150	31928	
3214	0	33064	36186	27112	31926	
3215	0	33018	36062	27109	31942	
3216	0	33016	36064	27138	31956	
3217	0	33044	36064	27136	31948	
3218	0	33060	36058	27140	31948	
3219	0	33045	36059	27156	31924	
3220	0	32956	36066	27167	31936	
3221	0	32976	36124	27176	31938	
3222	0	32954	36053	27186	31944	
3223	0	32988	35962	27208	31932	
3224	0	33008	36024	27196	31950	
3225	0	32996	36052	27204	31950	
3226	0	33014	36028	27200	31934	
3227	0	33002	36170	27180	31929	
3228	0	32968	36124	27196	31940	
3229	0	32936	36145	27202	31950	
3230	0	32916	36104	27180	31944	
3231	0	32952	36056	27175	31960	
3232	0	32900	36012	27188	31932	
3233	0	32874	36172	27180	31928	
3234	0	32872	36100	27164	31952	
3235	0	32844	36013	27168	31961	
3236	0	32792	36072	27157	31968	
3237	0	32814	36118	27143	31960	
3238	0	32786	35992	27144	31966	
3239	0	32772	35996	27130	31951	
3240	0	32725	36128	27142	31964	
3241	0	32752	36046	27150	31948	
3242	0	32798	36020	27130	31952	
3243	0	32759	36040	27140	31944	
3244	0	32680	36064	27148	31972	
3245	0	32716	36058	27132	31948	
3246	0	32648	36172	27148	31941	
3247	0	32600	36028	27136	31956	
3248	0	32602	36070	27138	31950	
3249	0	32664	35984	27130	31925	
3250	0	32712	36074	27130	31951	
3251	0	32700	35978	27129	31942	
3252	0	32692	36030	27130	31936	
3253	0	32736	36034	27124	31952	
3254	0	32788	35958	27112	31956	
3255	0	32924	36024	27102	31944	
3256	0	32884	36116	27125	31932	
3257	0	32968	35958	27128	31952	
3258	0	33024	36172	27121	31938	
3259	0	33028	36096	27129	31954	
3260	0	33020	36096	27130	31932	
3261	0	33010	36028	27104	31924	
3262	0	33038	36124	27122	31924	
3263	0	32980	36096	27119	31928	
3264	0	32984	36056	27132	31918	
3265	0	33000	36196	27138	31900	
3266	0	32962	36120	27152	31914	
3267	0	33042	36104	27164	31930	
3268	0	33088	36048	27175	31896	
3269	0	33088	36076	27192	31888	
3270	0	33106	35990	27198	31890	
3271	0	33128	36180	27205	31898	
3272	0	33116	36060	27210	31912	
3273	0	33128	36056	27224	31893	
3274	0	33112	36076	27242	31894	
3275	0	33088	36232	27236	31904	
3276	0	33012	36012	27218	31906	
3277	0	33056	36102	27224	31900	
3278	0	33022	36032	27216	31924	
3279	0	32920	36072	27212	31928	
3280	0	32380	36056	27212	31929	
3281	0	31920	36020	27203	31960	
3282	0	31764	36076	27163	31974	
3283	0	31713	36104	27154	31954	
3284	0	31950	36058	27168	31966	
3285	0	33184	36152	27132	31962	
3286	0	35612	36148	27152	31968	
3287	0	39074	36260	27146	31962	
3288	0	42844	36324	27136	31972	
3289	0	45656	36288	27142	31984	
3290	0	47420	36164	27128	31968	
3291	0	45084	36354	27126	31946	
3292	0	40040	36261	27090	31956	
3293	0	35370	35984	27106	31946	
3294	0	35864	36199	27090	31938	
3295	0	35516	36154	27053	31961	
3296	0	34202	36150	27032	31970	
3297	0	33092	36049	27020	31956	
3298	0	32282	35840	27025	31972	
3299	0	31660	35938	27050	31992	
3300	0	31360	35936	27057	32000	
3301	0	31150	35968	27068	31992	
3302	0	31056	36136	27133	31988	
3303	0	30988	36096	27132	31968	
3304	0	31010	36046	27128	31958	
3305	0	30962	35986	27120	31964	
3306	0	30998	35946	27104	31946	
3307	0	31072	35890	27098	31960	
3308	0	31074	36020	27142	31980	
3309	0	31121	36056	27162	32011	
3310	0	31136	36074	27156	31966	
3311	0	31236	36008	27126	31978	
3312	0	31194	35928	27090	31972	
3313	0	31184	36016	27112	31980	
3314	0	31190	35982	27074	32000	
3315	0	31240	36052	27080	31994	
3316	0	31228	36022	27092	32000	
3317	0	31260	36066	27052	32008	
3318	0	31244	35976	27071	31996	
3319	0	31274	36072	27078	31992	
3320	0	31282	36014	27088	32010	
3321	0	31226	35984	27094	31964	
3322	0	31220	36036	27104	32005	
3323	0	31258	36036	27080	31982	
3324	0	31260	36105	27098	31981	
3325	0	31308	35996	27094	31970	
3326	0	31340	36012	27073	31972	
3327	0	31325	35926	27088	31964	
3328	0	31288	35936	27094	31986	
3329	0	31305	36016	27072	32008	
3330	0	31328	35812	27050	31988	
3331	0	31334	35904	27040	31994	
3332	0	31364	35996	27055	32000	
3333	0	31408	36064	27030	31988	
3334	0	31434	35960	27070	31995	
3335	0	31442	35916	27089	32008	
3336	0	31428	36036	27058	31970	
3337	0	31444	35984	27050	32002	
3338	0	31486	35884	27052	32000	
3339	0	31442	35954	27040	31980	
3340	0	31512	35987	27060	31982	
3341	0	31560	36050	27046	32016	
3342	0	31512	36030	27034	32006	
3343	0	31540	35920	27034	32001	
3344	0	31578	35954	27042	32000	
3345	0	31572	36040	27033	32012	
3346	0	31518	35997	27036	32024	
3347	0	31604	35988	27056	32030	
3348	0	31532	36032	27063	32018	
3349	0	31514	36164	27060	32024	
3350	0	31520	36020	27082	32008	
3351	0	31530	35972	27087	31998	
3352	0	31582	36096	27088	32002	
3353	0	31540	36080	27072	32000	
3354	0	31598	36016	27096	32002	
3355	0	31611	36012	27078	32012	
3356	0	31650	35884	27062	32010	
3357	0	31660	36036	27072	32036	
3358	0	31705	36030	27072	31986	
3359	0	31792	36000	27084	31994	
3360	0	31808	35936	27100	31984	
3361	0	31770	35962	27120	31988	
3362	0	31850	36036	27112	31996	
3363	0	31930	36032	27108	31988	
3364	0	31932	36114	27104	31992	
3365	0	31956	36046	27090	32008	
3366	0	32002	36036	27120	32004	
3367	0	32110	36098	27106	32016	
3368	0	32237	36016	27112	31994	
3369	0	32364	36072	27120	32000	
3370	0	32448	36072	27100	32002	
3371	0	32566	35972	27136	32016	
3372	0	32616	36046	27105	31988	
3373	0	32672	36080	27114	32020	
3374	0	32720	36008	27106	32022	
3375	0	32736	36088	27128	32012	
3376	0	32773	36092	27124	31990	
3377	0	32839	36154	27154	32012	
3378	0	32844	36132	27144	31999	
3379	0	32880	36164	27136	31976	
3380	0	32868	36124	27152	31977	
3381	0	32858	36040	27146	31976	
3382	0	32988	36160	27120	31984	
3383	0	32982	35910	27104	31978	
3384	0	33002	36076	27088	31982	
3385	0	32972	36224	27113	32004	
3386	0	33002	36128	27150	32012	
3387	0	32956	36096	27130	31988	
3388	0	32912	36048	27136	32028	
3389	0	32896	36112	27136	31978	
3390	0	32876	36050	27122	31991	
3391	0	32800	36068	27140	32004	
3392	0	32774	36112	27140	31988	
3393	0	32786	36048	27128	31984	
3394	0	32792	36072	27104	32000	
3395	0	32780	36072	27116	31987	
3396	0	32766	36018	27098	31994	
3397	0	32794	36021	27140	31960	
3398	0	32800	36044	27148	31948	
3399	0	32794	36092	27140	31976	
3400	0	32786	36024	27096	31950	
3401	0	32808	36050	27124	31960	
3402	0	32774	36088	27102	31956	
3403	0	32744	36098	27108	31944	
3404	0	32764	35998	27106	31967	
3405	0	32800	36116	27096	31972	
3406	0	32864	36116	27126	31969	
3407	0	32832	36098	27112	31964	
3408	0	32784	36084	27108	31983	
3409	0	32744	36034	27100	31982	
3410	0	32768	36064	27112	32000	
3411	0	32762	36080	27118	31994	
3412	0	32826	36064	27130	31992	
3413	0	32815	35994	27124	31992	
3414	0	32806	36048	27126	31978	
3415	0	32770	35908	27106	31978	
3416	0	32716	35892	27112	31980	
3417	0	32716	36081	27108	31972	
3418	0	32716	36092	27122	31940	
3419	0	32692	36160	27128	31950	
3420	0	32684	36080	27117	31960	
3421	0	32684	35978	27119	31953	
3422	0	32728	36080	27132	31950	
3423	0	32754	36032	27118	31960	
3424	0	32752	35980	27152	31968	
3425	0	32728	36172	27140	31966	
3426	0	32702	36006	27136	31940	
3427	0	32746	36090	27162	31968	
3428	0	32718	36096	27172	31930	
3429	0	32772	36111	27148	31956	
3430	0	32760	36060	27146	31972	
3431	0	32720	36064	27156	31989	
3432	0	32704	36088	27137	31978	
3433	0	32686	36058	27128	31944	
3434	0	32744	35994	27131	31936	
3435	0	32728	36020	27148	31946	
3436	0	32692	35962	27120	31956	
3437	0	32722	36042	27150	31976	
3438	0	32746	36072	27156	31954	
3439	0	32752	36072	27166	31950	
3440	0	32750	36049	27138	31958	
3441	0	32698	36116	27170	31960	
3442	0	32668	36009	27136	31972	
3443	0	32664	36162	27144	31944	
3444	0	32656	36056	27124	31936	
3445	0	32602	36116	27146	31956	
3446	0	32582	36014	27173	31956	
3447	0	32556	36056	27134	31956	
3448	0	32590	35920	27144	31956	
3449	0	32567	35992	27144	31940	
3450	0	32580	35916	27126	31912	
3451	0	32602	35998	27124	31930	
3452	0	32596	36036	27136	31950	
3453	0	32574	36064	27145	31943	
3454	0	32572	36104	27124	31929	
3455	0	32624	36043	27104	31936	
3456	0	32616	35972	27106	31958	
3457	0	32608	36060	27120	31940	
3458	0	32580	36048	27090	31928	
3459	0	32574	35944	27100	31926	
3460	0	32548	36002	27108	31956	
3461	0	32606	36004	27124	31928	
3462	0	32672	36020	27122	31934	
3463	0	32664	36076	27104	31941	
3464	0	32715	36025	27112	31937	
3465	0	32717	36090	27136	31954	
3466	0	32690	36012	27142	31946	
3467	0	32638	36068	27140	31934	
3468	0	32536	36038	27152	31938	
3469	0	32488	36058	27148	31953	
3470	0	32508	36030	27142	31964	
3471	0	32496	36069	27150	31948	
3472	0	32452	36008	27143	31934	
3473	0	32416	36076	27152	31940	
3474	0	32478	36120	27126	31944	
3475	0	32508	36016	27118	31930	
3476	0	32500	35914	27122	31938	
3477	0	32560	36073	27106	31934	
3478	0	32564	36050	27128	31928	
3479	0	32650	36084	27126	31924	
3480	0	32694	35992	27110	31924	
3481	0	32642	35956	27084	31946	
3482	0	32642	35975	27088	31936	
3483	0	32614	36041	27069	31932	
3484	0	32564	36073	27098	31932	
3485	0	32473	35986	27080	31934	
3486	0	32454	36044	27102	31948	
3487	0	32516	36044	27096	31946	
3488	0	32582	36113	27084	31942	
3489	0	32626	36064	27084	31928	
3490	0	32564	36042	27086	31932	
3491	0	32596	35952	27084	31952	
3492	0	32636	35968	27100	31952	
3493	0	32660	36048	27118	31932	
3494	0	32677	36056	27128	31946	
3495	0	32648	36140	27115	31960	
3496	0	32652	36052	27127	31960	
3497	0	32612	35946	27122	31920	
3498	0	32581	36046	27144	31928	
3499	0	32590	36048	27120	31930	
3500	0	32550	36064	27136	31962	
3501	0	32348	35939	27120	31950	
3502	0	31801	36024	27144	31938	
3503	0	31330	36024	27122	31940	
3504	0	31296	36136	27132	31942	
3505	0	31456	36040	27122	31940	
3506	0	31988	36048	27110	31932	
3507	0	33626	36008	27124	31922	
3508	0	36098	36052	27120	31932	
3509	0	39660	36144	27144	31952	
3510	0	43124	36456	27171	31950	
3511	0	45934	36256	27139	31948	
3512	0	47060	36172	27148	31962	
3513	0	43346	36344	27132	31934	
3514	0	37588	36172	27132	31942	
3515	0	33936	36072	27106	31932	
3516	0	34943	36154	27084	31943	
3517	0	34480	36144	27113	31924	
3518	0	33448	36144	27092	31908	
3519	0	32484	36220	27080	31904	
3520	0	31738	35874	27068	31918	
3521	0	31253	35814	27072	31952	
3522	0	30927	35796	27048	31940	
3523	0	30726	35816	27093	31940	
3524	0	30676	35984	27124	31928	
3525	0	30652	36061	27098	31936	
3526	0	30654	36104	27080	31900	
3527	0	30672	36000	27106	31882	
3528	0	30708	35968	27090	31896	
3529	0	30748	35774	27084	31946	
3530	0	30764	35924	27124	31976	
3531	0	30692	35884	27186	32000	
3532	0	30672	35914	27216	31968	
3533	0	30734	36108	27179	31980	
3534	0	30849	35972	27164	31959	
3535	0	30942	36044	27118	31931	
3536	0	31018	36100	27105	31904	
3537	0	31074	35968	27136	31902	
3538	0	31094	35946	27122	31898	
3539	0	31056	36066	27072	31890	
3540	0	31057	36088	27096	31936	
3541	0	31086	35998	27104	31919	
3542	0	31084	36020	27120	31936	
3543	0	31100	36034	27125	31948	
3544	0	31108	36020	27103	31961	
3545	0	31160	36018	27116	31968	
3546	0	31238	35880	27114	31988	
3547	0	31294	35860	27112	31948	
3548	0	31342	36014	27098	31976	
3549	0	31402	36000	27084	31964	
3550	0	31376	36014	27067	31970	
3551	0	31348	35910	27064	31960	
3552	0	31418	36025	27090	31976	
3553	0	31456	36032	27020	31980	
3554	0	31412	35928	27064	31959	
3555	0	31460	35972	27062	31939	
3556	0	31479	35980	27064	31950	
3557	0	31544	35980	27045	31960	
3558	0	31572	36068	27036	31960	
3559	0	31554	35956	27074	31930	
3560	0	31548	36028	27045	31953	
3561	0	31604	35900	27068	31940	
3562	0	31616	36000	27063	31942	
3563	0	31615	35918	27028	31956	
3564	0	31648	35968	27064	31954	
3565	0	31594	35948	27078	31972	
3566	0	31562	35922	27062	31956	
3567	0	31522	35904	27086	31974	
3568	0	31498	35982	27094	31972	
3569	0	31488	35932	27064	31988	
3570	0	31536	36020	27066	31984	
3571	0	31530	35928	27094	31958	
3572	0	31508	36098	27096	31984	
3573	0	31468	35948	27093	31990	
3574	0	31420	36024	27120	31998	
3575	0	31464	35976	27144	31964	
3576	0	31504	35862	27120	31964	
3577	0	31504	36002	27120	31964	
3578	0	31530	36058	27108	31984	
3579	0	31516	35964	27097	31964	
3580	0	31581	36118	27104	31972	
3581	0	31658	35980	27118	31988	
3582	0	31697	36020	27137	31972	
3583	0	31729	36126	27104	31973	
3584	0	31768	36047	27089	31994	
3585	0	31798	35972	27130	31986	
3586	0	31832	36066	27098	31982	
3587	0	31912	35992	27096	31974	
3588	0	32012	35992	27110	31980	
3589	0	32080	36100	27126	31988	
3590	0	32220	36072	27106	31970	
3591	0	32388	36028	27108	31968	
3592	0	32484	35984	27112	31980	
3593	0	32568	36110	27108	31932	
3594	0	32635	36064	27092	31962	
3595	0	32684	36036	27096	31972	
3596	0	32772	36047	27070	31974	
3597	0	32874	35984	27104	31980	
3598	0	32922	35930	27090	31968	
3599	0	32878	36026	27132	31958	
3600	0	32917	36000	27124	31980	
3601	0	33036	35970	27108	31976	
3602	0	33130	35916	27122	32004	
3603	0	33121	35962	27116	31990	
3604	0	33186	36120	27104	32001	
3605	0	33208	36036	27104	31996	
3606	0	33176	36060	27164	32000	
3607	0	33132	36098	27137	31980	
3608	0	33152	35988	27152	31968	
3609	0	33240	36089	27120	31950	
3610	0	33352	35940	27112	31960	
3611	0	33290	36068	27108	31932	
3612	0	33256	36002	27104	31973	
3613	0	33240	35988	27102	31988	
3614	0	33290	36162	27117	31972	
3615	0	33242	35996	27126	31994	
3616	0	33214	35988	27136	32006	
3617	0	33244	35944	27144	31987	
3618	0	33248	36044	27126	31970	
3619	0	33342	36000	27162	31956	
3620	0	33348	36096	27142	31932	
3621	0	33298	35962	27136	31978	
3622	0	33306	36066	27145	31984	
3623	0	33310	36000	27124	31978	
3624	0	33390	36048	27126	31994	
3625	0	33384	35994	27108	31990	
3626	0	33384	36012	27128	31990	
3627	0	33468	36100	27126	32018	
3628	0	33494	36041	27141	32010	
3629	0	33444	36128	27112	31996	
3630	0	33442	36116	27130	31997	
3631	0	33408	36112	27136	31997	
3632	0	33358	36139	27144	31986	
3633	0	33340	36028	27136	31984	
3634	0	33388	36092	27157	31984	
3635	0	33384	36132	27122	31981	
3636	0	33344	36016	27176	31952	
3637	0	33340	35962	27160	31976	
3638	0	33338	36154	27160	31976	
3639	0	33364	36022	27178	31970	
3640	0	33318	36052	27188	31969	
3641	0	33310	36120	27152	31968	
3642	0	33356	35944	27176	31974	
3643	0	33372	36048	27176	31968	
3644	0	33402	36068	27168	31970	
3645	0	33296	36106	27202	31943	
3646	0	33242	36078	27190	31956	
3647	0	33272	36201	27180	31978	
3648	0	33272	36002	27180	31954	
3649	0	33286	36076	27184	31974	
3650	0	33340	35968	27183	31955	
3651	0	33314	35868	27152	31968	
3652	0	33280	36032	27168	31970	
3653	0	33264	35996	27212	31952	
3654	0	33248	36000	27166	31944	
3655	0	33268	36088	27168	31948	
3656	0	33234	36038	27140	31952	
3657	0	33264	36058	27193	31956	
3658	0	33240	36016	27180	31956	
3659	0	33232	36044	27176	31954	
3660	0	33162	36076	27162	31966	
3661	0	33154	36106	27176	31952	
3662	0	33060	36066	27186	31948	
3663	0	33078	36104	27117	31942	
3664	0	33132	36008	27142	31940	
3665	0	33254	35984	27148	31938	
3666	0	33181	36004	27156	31940	
3667	0	33118	36080	27108	31947	
3668	0	33088	36006	27134	31944	
3669	0	33068	36074	27124	31984	
3670	0	33032	36104	27136	31962	
3671	0	33056	36100	27124	31950	
3672	0	32997	36042	27128	31954	
3673	0	32924	36104	27133	31948	
3674	0	32836	36128	27144	31968	
3675	0	32820	36068	27129	31944	
3676	0	32858	36068	27163	31957	
3677	0	32887	35992	27118	31956	
3678	0	32836	36136	27149	31952	
3679	0	32762	35980	27126	31950	
3680	0	32884	36004	27130	31968	
3681	0	32886	36096	27133	31964	
3682	0	32880	35976	27162	31982	
3683	0	32912	36136	27144	31962	
3684	0	32914	36108	27124	31956	
3685	0	32974	35998	27136	31982	
3686	0	33036	36080	27152	31976	
3687	0	33124	36048	27128	31980	
3688	0	33150	36100	27154	31984	
3689	0	33186	35890	27136	31990	
3690	0	33132	36116	27134	31984	
3691	0	33140	36068	27154	31974	
3692	0	33162	36032	27173	31980	
3693	0	33106	36046	27154	31944	
3694	0	33044	36066	27128	31934	
3695	0	33064	36096	27114	31956	
3696	0	33060	36028	27136	32006	
3697	0	33024	35952	27168	31984	
3698	0	33106	36136	27132	31959	
3699	0	33087	36048	27114	31966	
3700	0	33054	36010	27144	31971	
3701	0	33108	36102	27132	31976	
3702	0	33206	35988	27132	31974	
3703	0	33210	36118	27126	31972	
3704	0	33206	35944	27128	31988	
3705	0	33140	36048	27140	31988	
3706	0	33123	35972	27126	31989	
3707	0	33058	35956	27121	32000	
3708	0	32524	36084	27136	31980	
3709	0	31948	35988	27112	31994	
3710	0	31672	36128	27130	31960	
3711	0	31926	36020	27132	31970	
3712	0	32368	36046	27138	31984	
3713	0	33801	36058	27117	31986	
3714	0	36048	36154	27146	32002	
3715	0	39186	36204	27112	31958	
3716	0	43046	36512	27124	32014	
3717	0	46612	36172	27124	31988	
3718	0	49392	36160	27146	31994	
3719	0	47252	36204	27140	31992	
3720	0	40319	36216	27128	31968	
3721	0	34306	36010	27132	31952	
3722	0	34644	36140	27090	31963	
3723	0	35208	36000	27102	31972	
3724	0	34444	36187	27082	31992	
3725	0	33484	36108	27087	31952	
3726	0	32584	36092	27078	31948	
3727	0	31914	35990	27082	31994	
3728	0	31532	35876	27108	31984	
3729	0	31296	35844	27100	31996	
3730	0	31232	35922	27132	31994	
3731	0	31124	36016	27128	31989	
3732	0	31066	36118	27126	31954	
3733	0	31075	36032	27154	31964	
3734	0	31114	35973	27146	31966	
3735	0	31124	35772	27130	31988	
3736	0	31124	35782	27152	31988	
3737	0	31120	35954	27184	32013	
3738	0	31142	35926	27218	31994	
3739	0	31144	35958	27208	31999	
3740	0	31184	35992	27200	31956	
3741	0	31242	35980	27144	31970	
3742	0	31328	36010	27144	31950	
3743	0	31450	36248	27128	31916	
3744	0	31539	36128	27109	31924	
3745	0	31470	35972	27126	31932	
3746	0	31444	36068	27106	31950	
3747	0	31518	36120	27084	31956	
3748	0	31540	36008	27094	31982	
3749	0	31568	36132	27066	32012	
3750	0	31602	36056	27080	32000	
3751	0	31592	36048	27064	32012	
3752	0	31604	35940	27086	32016	
3753	0	31650	36032	27095	32016	
3754	0	31680	36057	27082	32002	
