# OpenSignals Text File Format. Version 1
# {"00:07:80:0F:2F:AD": {"position": 0, "device": "biosignalsplux", "device name": "00:07:80:0F:2F:AD", "device connection": "BTH00:07:80:0F:2F:AD", "sampling rate": 300, "resolution": [16, 16, 16, 16], "firmware version": 776, "comments": "", "keywords": "", "mode": 0, "sync interval": 2, "date": "2024-1-15", "time": "16:51:19.457", "channels": [1, 5, 6, 7], "sensor": ["ECG", "XYZ", "XYZ", "XYZ"], "label": ["CH1", "CH5", "CH6", "CH7"], "column": ["nSeq", "DI", "CH1", "CH5", "CH6", "CH7"], "special": [{"SpO2": [80, 40, 5, 4, 3, 3]}, {"SpO2": [80, 40, 5, 4, 3, 3]}, {"SpO2": [80, 40, 5, 4, 3, 3]}, {"SpO2": [80, 40, 5, 4, 3, 3]}, {"SpO2": [80, 40, 5, 4, 3, 3]}, {"SpO2": [80, 40, 5, 4, 3, 3]}, {"SpO2": [80, 40, 5, 4, 3, 3]}, {"SpO2": [80, 40, 5, 4, 3, 3]}], "digital IO": [0, 1], "sleeve color": ["light_green", "white", "white", "white"], "convertedValues": 0}}
# EndOfHeader
0	0	32932	36090	27216	32064	
1	0	32933	36036	27210	32068	
2	0	32906	35992	27206	32052	
3	0	32928	36170	27193	32053	
4	0	32906	36170	27194	32030	
5	0	32912	36136	27184	32026	
6	0	32880	36060	27166	32034	
7	0	32896	36140	27164	32020	
8	0	32936	36088	27140	32020	
9	0	32948	36138	27146	32018	
10	0	32912	36176	27148	31988	
11	0	32908	36072	27166	32000	
12	0	32964	36104	27146	32004	
13	0	32958	36076	27156	32020	
14	0	32916	36079	27104	32008	
15	0	32952	36058	27124	32004	
16	0	32934	36020	27136	32000	
17	0	32932	36168	27105	31994	
18	0	32940	36058	27122	32024	
19	0	32998	35936	27112	32010	
20	0	32994	36008	27119	32010	
21	0	32936	35992	27136	32032	
22	0	32968	36132	27156	32034	
23	0	32972	36032	27120	32044	
24	0	32958	36130	27138	32048	
25	0	32964	36122	27162	32066	
26	0	32984	36006	27200	32036	
27	0	32948	36040	27162	32062	
28	0	32906	36126	27193	32070	
29	0	32948	36114	27150	32062	
30	0	32924	35992	27148	32092	
31	0	32886	36119	27138	32064	
32	0	32884	36106	27106	32066	
33	0	33012	36072	27088	32040	
34	0	32940	36032	27074	32032	
35	0	32934	36060	27082	32021	
36	0	32844	36040	27076	32012	
37	0	32856	36160	27044	32014	
38	0	32864	36044	27029	32008	
39	0	32800	36174	27046	32026	
40	0	32864	36119	27042	32036	
41	0	32860	36058	27024	32038	
42	0	32876	36178	27051	32032	
43	0	32862	36188	27046	32020	
44	0	32794	36100	27039	32056	
45	0	32745	36136	27046	32076	
46	0	32736	36134	27050	32056	
47	0	32796	36106	27038	32096	
48	0	32800	36028	27068	32096	
49	0	32770	36042	27084	32084	
50	0	32744	36028	27062	32112	
51	0	32702	36040	27072	32108	
52	0	32684	36064	27074	32112	
53	0	32650	36088	27094	32124	
54	0	32652	36084	27104	32136	
55	0	32640	36088	27119	32114	
56	0	32706	36126	27122	32102	
57	0	32810	36096	27160	32139	
58	0	32801	36036	27140	32114	
59	0	32832	36129	27148	32105	
60	0	32784	36130	27144	32120	
61	0	32848	36152	27170	32118	
62	0	32906	36164	27160	32112	
63	0	32960	35994	27152	32104	
64	0	32888	36052	27166	32071	
65	0	32906	36216	27160	32085	
66	0	32815	36118	27162	32044	
67	0	32836	36087	27176	32067	
68	0	32860	36096	27176	32056	
69	0	32726	36088	27148	32048	
70	0	32746	36064	27168	32030	
71	0	32856	36104	27180	32024	
72	0	32846	36102	27168	32012	
73	0	32900	36017	27154	32004	
74	0	32914	36112	27134	32010	
75	0	32838	35978	27128	32012	
76	0	32805	36004	27132	32004	
77	0	32892	35994	27116	32019	
78	0	32896	36085	27137	32008	
79	0	32892	36072	27129	32008	
80	0	32855	36056	27132	32011	
81	0	32760	36189	27132	32010	
82	0	32486	36124	27104	32002	
83	0	32030	36110	27123	31994	
84	0	31648	36190	27147	31986	
85	0	31564	36044	27142	32000	
86	0	31024	36058	27168	31992	
87	0	31364	36232	27174	31978	
88	0	33468	36175	27198	31990	
89	0	36568	36199	27182	31968	
90	0	40832	36322	27189	32006	
91	0	44098	36375	27197	31990	
92	0	46752	36393	27208	31996	
93	0	48264	36288	27204	31964	
94	0	44808	36556	27186	31948	
95	0	40428	36311	27144	31964	
96	0	36504	36328	27144	31950	
97	0	36602	36252	27156	31960	
98	0	35668	36176	27136	31964	
99	0	34068	36168	27110	31986	
100	0	32696	35972	27106	32014	
101	0	31592	36178	27146	32048	
102	0	30932	35942	27144	32044	
103	0	30574	36038	27222	32034	
104	0	30310	36048	27264	32030	
105	0	30200	36000	27278	32016	
106	0	30228	36032	27312	32004	
107	0	30202	36084	27282	31974	
108	0	30216	36124	27256	31972	
109	0	30240	36224	27319	31968	
110	0	30270	36138	27336	31954	
111	0	30378	36016	27252	31964	
112	0	30458	35988	27232	31958	
113	0	30464	35964	27220	31964	
114	0	30452	36106	27190	31968	
115	0	30462	36290	27153	31996	
116	0	30586	36266	27120	31994	
117	0	30734	36055	27130	31998	
118	0	30722	36104	27124	32018	
119	0	30702	36002	27148	32036	
120	0	30720	36120	27132	32048	
121	0	30748	36245	27170	32093	
122	0	30732	36210	27188	32052	
123	0	30708	36172	27192	32040	
124	0	30744	36172	27180	32033	
125	0	30730	36338	27160	32010	
126	0	30772	36224	27196	32012	
127	0	30704	36115	27205	32015	
128	0	30678	36200	27176	32044	
129	0	30732	36112	27180	32064	
130	0	30754	36114	27196	32044	
131	0	30758	36096	27180	32026	
132	0	30767	35922	27150	32002	
133	0	30784	36088	27114	32014	
134	0	30752	36156	27092	31995	
135	0	30732	36164	27068	31964	
136	0	30756	36048	27089	31973	
137	0	30758	36130	27118	31948	
138	0	30748	35988	27122	31984	
139	0	30724	35984	27100	31972	
140	0	30646	36016	27136	31978	
141	0	30556	36144	27132	31982	
142	0	30530	35918	27112	31963	
143	0	30498	35926	27120	31988	
144	0	30400	35930	27098	31992	
145	0	30364	35859	27136	32002	
146	0	30272	35920	27136	32006	
147	0	30230	35952	27140	32004	
148	0	30152	35860	27126	32004	
149	0	30064	35864	27142	32052	
150	0	29958	35956	27142	32038	
151	0	29908	35896	27159	32045	
152	0	29920	35941	27176	32032	
153	0	29980	35880	27216	32012	
154	0	29972	35940	27217	32052	
155	0	30058	35934	27216	32045	
156	0	30152	36010	27240	32048	
157	0	30224	35796	27208	32064	
158	0	30328	36088	27218	32038	
159	0	30428	35924	27224	32040	
160	0	30542	35940	27204	32060	
161	0	30646	35936	27204	32058	
162	0	30796	35940	27200	32044	
163	0	30858	35808	27185	32032	
164	0	30976	35878	27183	32044	
165	0	31158	35824	27188	32020	
166	0	31348	35846	27149	32034	
167	0	31526	35868	27156	32024	
168	0	31712	35832	27146	31994	
169	0	31914	35876	27106	31984	
170	0	32076	35792	27116	31972	
171	0	32296	35840	27076	31976	
172	0	32440	35824	27044	31994	
173	0	32692	35828	27056	31972	
174	0	32884	35818	27020	31996	
175	0	33024	35860	26998	32012	
176	0	33172	35818	26956	32006	
177	0	33306	35868	26952	32018	
178	0	33448	35700	26936	32022	
179	0	33512	35732	26910	32023	
180	0	33572	35864	26876	32030	
181	0	33596	35858	26914	32034	
182	0	33616	35680	26892	32033	
183	0	33632	35736	26918	32024	
184	0	33652	35870	26928	32044	
185	0	33684	35864	26919	32078	
186	0	33658	35844	26952	32064	
187	0	33641	35818	26964	32036	
188	0	33654	35886	26978	32012	
189	0	33654	35898	26998	32008	
190	0	33676	35838	27000	32040	
191	0	33708	35852	27024	32050	
192	0	33700	35924	27036	32014	
193	0	33680	35820	27014	32036	
194	0	33700	35944	27036	31992	
195	0	33682	35968	27048	32000	
196	0	33664	36042	27038	32001	
197	0	33712	36022	27070	31976	
198	0	33707	36008	27078	31978	
199	0	33736	35954	27064	31988	
200	0	33752	36052	27108	32004	
201	0	33736	36002	27136	31988	
202	0	33743	36032	27144	32000	
203	0	33740	35994	27148	31988	
204	0	33734	35960	27194	31980	
205	0	33686	35904	27176	31962	
206	0	33706	35950	27128	31960	
207	0	33728	36108	27177	31931	
208	0	33676	36008	27180	31940	
209	0	33676	36048	27172	31932	
210	0	33642	35968	27186	31922	
211	0	33648	35972	27180	31900	
212	0	33626	35976	27194	31898	
213	0	33648	36086	27182	31900	
214	0	33640	36066	27212	31918	
215	0	33614	36092	27194	31892	
216	0	33640	35930	27202	31880	
217	0	33584	36018	27200	31848	
218	0	33592	36040	27208	31858	
219	0	33650	35964	27230	31862	
220	0	33620	36110	27206	31886	
221	0	33580	36040	27162	31887	
222	0	33622	36026	27198	31896	
223	0	33580	36135	27184	31879	
224	0	33600	36086	27170	31924	
225	0	33600	36066	27138	31924	
226	0	33580	36152	27172	31940	
227	0	33568	36064	27140	31940	
228	0	33496	35928	27148	31960	
229	0	33564	36000	27140	31996	
230	0	33524	35993	27121	31976	
231	0	33472	36088	27121	31963	
232	0	33475	35950	27082	31958	
233	0	33434	36158	27092	31964	
234	0	33432	36058	27084	32004	
235	0	33478	36052	27090	32000	
236	0	33463	35984	27064	32028	
237	0	33450	35960	27079	32018	
238	0	33450	36016	27086	32000	
239	0	33504	36109	27084	31996	
240	0	33520	35960	27054	31983	
241	0	33436	35936	27040	32000	
242	0	33462	35952	27062	32008	
243	0	33370	35854	27076	31984	
244	0	33230	35855	27062	32010	
245	0	33138	35892	27076	32008	
246	0	33174	35912	27056	32032	
247	0	33242	35972	27102	32046	
248	0	33424	36072	27088	32042	
249	0	33342	35970	27080	32092	
250	0	33250	36052	27094	32098	
251	0	33210	36008	27119	32110	
252	0	33272	36064	27118	32096	
253	0	33280	36054	27116	32112	
254	0	33274	36062	27088	32092	
255	0	33332	36064	27090	32096	
256	0	33233	36040	27066	32098	
257	0	33254	36044	27080	32052	
258	0	33264	36100	27072	32054	
259	0	33268	35931	27088	32002	
260	0	33316	36078	27092	31980	
261	0	33288	36051	27101	31971	
262	0	33386	36036	27124	31944	
263	0	33416	35928	27086	31956	
264	0	33358	36046	27067	31944	
265	0	33356	36010	27084	31969	
266	0	33320	35960	27060	31962	
267	0	33232	36080	27070	31980	
268	0	33242	36084	27074	31998	
269	0	33280	35994	27056	32018	
270	0	33312	36026	27056	32026	
271	0	33340	35896	27075	32030	
272	0	33338	36112	27060	32050	
273	0	33322	36010	27048	32052	
274	0	33242	35960	27068	32080	
275	0	33324	36020	27054	32104	
276	0	33368	35916	27052	32096	
277	0	33256	36106	27049	32112	
278	0	33080	36144	27064	32111	
279	0	32610	36110	27058	32094	
280	0	32136	36162	27060	32108	
281	0	31713	36156	27075	32064	
282	0	31668	36156	27044	32052	
283	0	31566	36104	27048	32044	
284	0	32298	36116	27062	32041	
285	0	34338	36182	27108	32028	
286	0	37070	36120	27073	32026	
287	0	40686	36372	27056	32032	
288	0	43504	36398	27078	32024	
289	0	45764	36316	27064	32052	
290	0	45714	36286	27082	32060	
291	0	41328	36284	27054	32060	
292	0	37032	36160	27084	32048	
293	0	35336	36036	27068	32063	
294	0	36376	36162	27090	32084	
295	0	35384	36110	27118	32084	
296	0	33992	36134	27116	32100	
297	0	32708	36082	27121	32104	
298	0	31808	35926	27218	32098	
299	0	31324	35928	27214	32120	
300	0	30930	35980	27262	32100	
301	0	30690	36040	27304	32068	
302	0	30694	36118	27353	32004	
303	0	30708	36194	27368	31988	
304	0	30740	35952	27386	31966	
305	0	30745	36076	27392	31954	
306	0	30730	36026	27404	31932	
307	0	30738	36166	27408	31919	
308	0	30784	36266	27374	31920	
309	0	30812	36084	27330	31898	
310	0	30890	36110	27315	31916	
311	0	30862	35884	27236	31942	
312	0	30910	36096	27208	31944	
313	0	30960	36142	27156	31952	
314	0	30930	36168	27146	31918	
315	0	30966	36020	27104	31898	
316	0	30968	36104	27096	31902	
317	0	30942	36076	27114	31906	
318	0	30976	35978	27080	31916	
319	0	31030	36024	27105	31904	
320	0	31010	36034	27084	31904	
321	0	31060	36006	27048	31914	
322	0	31116	36026	27046	31908	
323	0	31100	35972	27019	31926	
324	0	31140	36026	27008	31922	
325	0	31144	35899	26964	31952	
326	0	31126	35928	27000	31976	
327	0	31224	35930	26938	31988	
328	0	31228	35952	26896	32020	
329	0	31232	35902	26920	32012	
330	0	31222	35936	26908	32014	
331	0	31256	35892	26888	32028	
332	0	31197	35948	26902	32024	
333	0	31246	35880	26900	32018	
334	0	31196	35968	26918	32004	
335	0	31205	35944	26866	32016	
336	0	31258	35900	26880	32036	
337	0	31232	35982	26876	32010	
338	0	31227	35704	26846	32024	
339	0	31170	35800	26894	32044	
340	0	31156	35846	26900	32044	
341	0	31104	35852	26900	32045	
342	0	31066	35732	26919	32062	
343	0	31014	35916	26932	32080	
344	0	30970	35876	26952	32092	
345	0	30876	35852	26988	32082	
346	0	30790	35744	27036	32064	
347	0	30756	35870	27036	32064	
348	0	30758	35930	27043	32060	
349	0	30722	35936	27048	32074	
350	0	30756	35972	27072	32080	
351	0	30820	35964	27062	32070	
352	0	30851	35960	27074	32082	
353	0	30928	35968	27094	32078	
354	0	31002	35900	27128	32079	
355	0	31116	35990	27126	32064	
356	0	31224	35944	27168	32082	
357	0	31302	35952	27181	32080	
358	0	31372	35928	27182	32079	
359	0	31444	36056	27226	32088	
360	0	31500	36068	27248	32064	
361	0	31604	36088	27284	32064	
362	0	31762	36088	27317	32058	
363	0	31839	36068	27348	32048	
364	0	31860	36258	27386	32028	
365	0	31952	36141	27422	32004	
366	0	32066	36098	27426	31982	
367	0	32158	36171	27424	31984	
368	0	32230	36108	27468	31927	
369	0	32386	36226	27478	31944	
370	0	32548	36066	27464	31912	
371	0	32714	35994	27429	31896	
372	0	32804	36053	27426	31880	
373	0	32842	36000	27370	31904	
374	0	33022	36162	27338	31936	
375	0	32992	35980	27298	31934	
376	0	33068	36244	27290	31932	
377	0	33100	36026	27300	31936	
378	0	33126	36048	27282	31952	
379	0	33214	36004	27288	31958	
380	0	33194	35928	27284	31948	
381	0	33264	35978	27287	31953	
382	0	33308	35968	27280	31924	
383	0	33288	36072	27306	31936	
384	0	33356	36100	27322	31916	
385	0	33332	35984	27246	31904	
386	0	33320	35744	27258	31896	
387	0	33330	36102	27246	31877	
388	0	33312	35850	27204	31890	
389	0	33324	35874	27168	31869	
390	0	33369	35812	27142	31902	
391	0	33434	35878	27160	31906	
392	0	33487	35801	27104	31888	
393	0	33484	35754	27060	31902	
394	0	33444	35810	27020	31958	
395	0	33390	35725	27020	31970	
396	0	33442	36036	27032	32028	
397	0	33458	35912	27002	32012	
398	0	33622	35888	27016	32053	
399	0	33584	35984	27020	32056	
400	0	33642	35842	27026	32086	
401	0	33720	35892	27032	32088	
402	0	33684	35968	27013	32092	
403	0	33700	35848	26982	32076	
404	0	33786	35980	26988	32030	
405	0	33690	35909	26908	32028	
406	0	33718	35824	26892	32014	
407	0	33752	35904	26858	31993	
408	0	33736	35788	26838	32008	
409	0	33772	35726	26828	32022	
410	0	33626	35852	26772	32020	
411	0	33650	35876	26756	32032	
412	0	33636	35840	26746	32028	
413	0	33644	35832	26694	32068	
414	0	33546	35744	26676	32066	
415	0	33732	35698	26650	32060	
416	0	33672	35782	26640	32076	
417	0	33604	35844	26648	32116	
418	0	33576	35842	26636	32104	
419	0	33700	35708	26666	32130	
420	0	33742	35814	26686	32144	
421	0	33560	35860	26710	32174	
422	0	33724	35852	26714	32178	
423	0	33698	35912	26710	32168	
424	0	33758	35791	26744	32178	
425	0	33792	35850	26754	32188	
426	0	33728	35894	26776	32184	
427	0	33632	35736	26778	32166	
428	0	33762	35468	26844	32184	
429	0	33774	35536	26812	32204	
430	0	33660	35674	26826	32204	
431	0	33708	35916	26840	32180	
432	0	33724	35744	26912	32156	
433	0	33640	35818	26922	32146	
434	0	33652	35678	26904	32152	
435	0	33542	35692	26929	32136	
436	0	33646	35728	26856	32160	
437	0	33542	35822	26820	32162	
438	0	33584	36060	26830	32146	
439	0	33578	35908	26789	32162	
440	0	33572	35776	26742	32156	
441	0	33508	35852	26752	32168	
442	0	33540	36056	26790	32176	
443	0	33500	35978	26826	32205	
444	0	33472	35690	26874	32194	
445	0	33504	35776	26866	32202	
446	0	33412	35744	26904	32176	
447	0	33372	36044	26896	32191	
448	0	33392	35648	26892	32170	
449	0	33338	35704	26916	32160	
450	0	33312	35820	26900	32148	
451	0	33316	35912	26903	32136	
452	0	33332	35667	26892	32148	
453	0	33300	35786	26920	32170	
454	0	33252	35842	26890	32190	
455	0	33260	35986	26884	32202	
456	0	33252	35736	26910	32212	
457	0	33232	35882	26888	32239	
458	0	33214	35912	26858	32250	
459	0	33090	35754	26854	32226	
460	0	33064	35886	26862	32251	
461	0	32986	35976	26879	32266	
462	0	32872	35840	26882	32274	
463	0	32872	36072	26900	32236	
464	0	32884	35962	26898	32241	
465	0	32846	35852	26924	32234	
466	0	32864	35834	26952	32250	
467	0	32812	36040	26992	32216	
468	0	32924	36002	27014	32228	
469	0	32840	36080	27056	32200	
470	0	32866	36224	27072	32206	
471	0	32912	35980	27120	32158	
472	0	32931	36132	27080	32150	
473	0	32928	35992	27136	32128	
474	0	32896	35968	27134	32088	
475	0	32876	36046	27121	32084	
476	0	32910	35962	27124	32084	
477	0	32920	36086	27150	32086	
478	0	32886	35940	27183	32065	
479	0	32790	35944	27180	32097	
480	0	32840	36008	27184	32056	
481	0	32848	35968	27224	32064	
482	0	32804	35980	27234	32040	
483	0	32768	35980	27230	32048	
484	0	32774	35960	27228	32044	
485	0	32768	35888	27272	32036	
486	0	32772	35904	27270	32060	
487	0	32728	35938	27276	32005	
488	0	32752	35976	27291	31988	
489	0	32724	36006	27305	31976	
490	0	32744	36088	27320	31988	
491	0	32669	35918	27310	31968	
492	0	32646	36132	27302	31960	
493	0	32602	35954	27313	31924	
494	0	32324	36012	27272	31917	
495	0	31872	35908	27296	31938	
496	0	31397	36056	27290	31916	
497	0	31448	35912	27250	31920	
498	0	31488	35920	27260	31900	
499	0	31924	35968	27212	31920	
500	0	33692	35900	27199	31912	
501	0	36016	35960	27157	31898	
502	0	39212	36160	27138	31898	
503	0	42138	36266	27112	31868	
504	0	44536	36236	27094	31866	
505	0	45528	36164	27100	31864	
506	0	42916	36320	27088	31864	
507	0	38584	36108	27040	31860	
508	0	35152	35904	27032	31848	
509	0	35490	36040	27016	31860	
510	0	34969	36066	26996	31836	
511	0	33806	36024	26996	31832	
512	0	32658	36034	27028	31836	
513	0	31770	35716	26988	31848	
514	0	31137	35848	27002	31850	
515	0	30772	36006	27033	31848	
516	0	30623	35844	27045	31813	
517	0	30550	35960	27072	31853	
518	0	30540	35898	27092	31789	
519	0	30522	35844	27074	31792	
520	0	30498	35882	27045	31800	
521	0	30578	35922	27032	31792	
522	0	30652	35982	27054	31814	
523	0	30644	36049	27036	31824	
524	0	30645	35980	27026	31832	
525	0	30668	35728	27002	31826	
526	0	30680	35884	26992	31852	
527	0	30760	35904	26976	31868	
528	0	30766	35874	26936	31904	
529	0	30826	35906	26960	31908	
530	0	30872	35908	26914	31927	
531	0	30865	35850	26938	31906	
532	0	30950	35878	26957	31885	
533	0	30942	35962	26953	31888	
534	0	30956	35940	26976	31892	
535	0	30952	35948	26934	31876	
536	0	31023	35980	26914	31892	
537	0	31014	36064	26926	31862	
538	0	31024	35930	26908	31894	
539	0	31086	35906	26880	31943	
540	0	31118	35774	26920	31916	
541	0	31144	35830	26856	31934	
542	0	31048	35892	26858	31964	
543	0	31084	35773	26834	31972	
544	0	31116	35844	26840	32010	
545	0	31112	35820	26838	32008	
546	0	31173	35773	26800	32028	
547	0	31192	35712	26828	32036	
548	0	31240	35754	26836	32020	
549	0	31194	35696	26816	31991	
550	0	31274	35816	26792	32000	
551	0	31191	35788	26822	31994	
552	0	31196	35803	26820	31982	
553	0	31195	35874	26844	31992	
554	0	31190	36024	26872	31976	
555	0	31240	35760	26862	31968	
556	0	31254	35716	26868	31948	
557	0	31222	35744	26908	31950	
558	0	31220	35812	26930	31958	
559	0	31144	35760	26970	31949	
560	0	31094	35764	26956	31958	
561	0	31032	35882	27006	31968	
562	0	30984	35972	26996	31960	
563	0	30980	35768	27016	31964	
564	0	30988	35972	27024	31980	
565	0	31056	35920	27050	31992	
566	0	31074	35866	27069	31980	
567	0	31133	35796	27055	31968	
568	0	31234	35878	27076	31988	
569	0	31336	35928	27112	31982	
570	0	31386	35956	27087	31978	
571	0	31472	35997	27124	31992	
572	0	31540	35992	27132	31990	
573	0	31634	35934	27120	32012	
574	0	31727	36033	27130	32008	
575	0	31730	36020	27134	32024	
576	0	31816	35942	27150	32036	
577	0	31888	35998	27136	32036	
578	0	31992	35976	27126	32002	
579	0	32138	36020	27138	32018	
580	0	32276	36016	27125	32006	
581	0	32311	35981	27132	32020	
582	0	32350	36085	27104	32012	
583	0	32404	36036	27120	32027	
584	0	32480	36056	27114	32008	
585	0	32536	35984	27136	32030	
586	0	32532	36140	27124	32021	
587	0	32535	36134	27116	32032	
588	0	32698	36044	27136	32040	
589	0	32824	36168	27146	32045	
590	0	32842	36064	27168	32044	
591	0	32894	36046	27164	32032	
592	0	32980	36142	27123	32012	
593	0	32960	35982	27128	32024	
594	0	33012	36058	27150	32026	
595	0	33086	36062	27082	32014	
596	0	33112	35996	27140	32058	
597	0	33156	36082	27106	32072	
598	0	33170	36012	27114	32042	
599	0	33142	36100	27123	32036	
600	0	33174	35994	27136	32024	
601	0	33244	36124	27152	32046	
602	0	33188	36112	27136	32058	
603	0	33132	36144	27150	32032	
604	0	33048	36064	27136	32044	
605	0	33057	36000	27128	32023	
606	0	33034	36004	27164	32016	
607	0	33128	36058	27166	32026	
608	0	33164	36084	27178	32034	
609	0	33174	36132	27210	32060	
610	0	33236	36055	27172	32086	
611	0	33258	36002	27178	32088	
612	0	33288	35968	27168	32082	
613	0	33337	36058	27171	32106	
614	0	33429	36010	27164	32084	
615	0	33376	36068	27154	32049	
616	0	33344	36012	27164	32038	
617	0	33340	36064	27168	32032	
618	0	33396	35846	27154	32026	
619	0	33468	36076	27146	32018	
620	0	33485	35972	27178	32034	
621	0	33424	35924	27152	32000	
622	0	33318	35994	27154	32016	
623	0	33252	35988	27136	32026	
624	0	33330	36044	27152	32016	
625	0	33290	36212	27160	32014	
626	0	33336	36000	27140	32008	
627	0	33380	35964	27136	32020	
628	0	33322	36080	27144	32022	
629	0	33247	35968	27129	31976	
630	0	33236	36072	27144	32020	
631	0	33234	36116	27116	31988	
632	0	33372	36018	27134	31992	
633	0	33416	36014	27152	32000	
634	0	33358	35992	27108	32004	
635	0	33352	35980	27122	31993	
636	0	33299	36104	27093	32002	
637	0	33320	35920	27086	31986	
638	0	33346	36000	27100	32010	
639	0	33348	35906	27052	32002	
640	0	33262	36110	27070	32006	
641	0	33200	35932	27058	31984	
642	0	33174	35953	27080	32008	
643	0	33188	35910	27046	32032	
644	0	33204	36032	27052	32032	
645	0	33286	35962	27070	31998	
646	0	33290	36040	27050	31992	
647	0	33252	35962	27049	32000	
648	0	33254	35972	27035	32008	
649	0	33248	35956	27040	32010	
650	0	33236	35962	27047	31993	
651	0	33192	36116	27065	31994	
652	0	33166	35994	27040	31998	
653	0	33176	35828	27028	31996	
654	0	33192	35982	27048	32020	
655	0	33184	35984	27076	31988	
656	0	33058	35959	27050	31984	
657	0	33012	35996	27076	31984	
658	0	33064	35927	27064	31976	
659	0	33148	35952	27090	31958	
660	0	33240	35968	27096	31968	
661	0	33240	36024	27080	31962	
662	0	33352	35968	27104	31988	
663	0	33370	35952	27122	31976	
664	0	33440	35972	27168	32004	
665	0	33350	35936	27160	32006	
666	0	33250	36002	27132	32018	
667	0	33166	35904	27136	32017	
668	0	33186	35960	27128	32016	
669	0	33216	35922	27142	32004	
670	0	33284	36080	27138	32038	
671	0	33316	36028	27132	31992	
672	0	33320	36010	27146	32024	
673	0	33262	35946	27140	32008	
674	0	33189	36040	27128	32012	
675	0	33198	35998	27162	32028	
676	0	33268	36002	27148	32016	
677	0	33304	35948	27159	32000	
678	0	33284	36040	27166	32000	
679	0	33274	35958	27154	31994	
680	0	33248	35992	27132	31988	
681	0	33220	35994	27152	32004	
682	0	33138	36096	27136	32024	
683	0	32960	36068	27127	32014	
684	0	32374	35998	27118	32022	
685	0	31920	36066	27126	32005	
686	0	32024	35995	27140	32022	
687	0	32260	35980	27146	32036	
688	0	32942	36028	27127	32026	
689	0	34549	36112	27123	32008	
690	0	36256	36084	27132	32024	
691	0	38736	36078	27126	32008	
692	0	41784	36332	27120	32000	
693	0	44892	36318	27122	32002	
694	0	46266	36326	27130	31994	
695	0	42254	36274	27104	32020	
696	0	36624	36104	27124	32016	
697	0	33978	36114	27116	32006	
698	0	35056	36084	27108	32040	
699	0	35200	36132	27084	32026	
700	0	34290	36076	27082	32020	
701	0	33404	36166	27072	32008	
702	0	32666	36124	27024	32041	
703	0	32106	35988	27052	32008	
704	0	31712	35882	27047	32016	
705	0	31454	35820	27038	32020	
706	0	31264	35834	27020	32072	
707	0	31152	35812	27048	32070	
708	0	31078	35884	27054	32048	
709	0	31024	35840	27040	32076	
710	0	31124	35749	27092	32079	
711	0	31194	35872	27130	32047	
712	0	31303	35857	27155	32049	
713	0	31360	36032	27151	32052	
714	0	31370	35960	27170	32052	
715	0	31380	35998	27174	32030	
716	0	31370	36044	27207	32036	
717	0	31376	36208	27180	32016	
718	0	31384	36044	27144	32034	
719	0	31408	36044	27124	32018	
720	0	31428	36064	27125	32012	
721	0	31428	36068	27156	32028	
722	0	31490	36200	27144	32036	
723	0	31560	36078	27116	32048	
724	0	31636	36056	27148	32096	
725	0	31758	35960	27136	32093	
726	0	31755	36040	27124	32058	
727	0	31758	36016	27166	32070	
728	0	31716	36038	27124	32052	
729	0	31682	36000	27122	32060	
730	0	31680	36085	27124	32042	
731	0	31768	36060	27094	32037	
732	0	31898	36056	27092	32032	
733	0	31910	35988	27091	32008	
734	0	31864	36124	27098	32018	
735	0	31906	36044	27080	32012	
736	0	32040	36000	27064	32006	
737	0	32024	36014	27054	32005	
738	0	31929	36004	27064	31992	
739	0	31882	36076	27076	31972	
740	0	31952	35910	27104	31988	
741	0	31908	36006	27086	32000	
742	0	31946	35936	27102	32004	
743	0	32000	35912	27109	32012	
744	0	32070	35874	27129	32018	
745	0	32112	35962	27141	32000	
746	0	32149	36028	27158	32004	
747	0	32052	35976	27146	32017	
748	0	32012	35918	27186	32016	
749	0	32006	35984	27188	32025	
750	0	31924	36008	27176	32012	
751	0	31858	35884	27188	32016	
752	0	31876	36020	27213	32024	
753	0	31976	35944	27218	32020	
754	0	32032	35936	27188	32006	
755	0	32039	35968	27224	32007	
756	0	32016	35928	27208	31992	
757	0	32088	36046	27216	32014	
758	0	32124	35996	27222	32004	
759	0	32142	36000	27208	32020	
760	0	32264	35996	27208	32036	
761	0	32288	35952	27214	32016	
762	0	32346	36016	27204	32032	
763	0	32496	36000	27180	32016	
764	0	32628	36008	27180	32014	
765	0	32654	36066	27176	32036	
766	0	32692	36048	27166	32041	
767	0	32802	36088	27148	32004	
768	0	32876	36066	27177	32018	
769	0	33024	36108	27166	31998	
770	0	33068	36038	27167	32022	
771	0	33100	35966	27162	32036	
772	0	33124	35962	27178	32032	
773	0	33084	36176	27146	32026	
774	0	33072	36180	27164	32016	
775	0	33040	36160	27190	32009	
776	0	33005	36140	27196	31994	
777	0	32958	36132	27178	31980	
778	0	32898	36120	27184	31996	
779	0	32828	35970	27150	32012	
780	0	32682	36114	27164	31994	
781	0	32698	36064	27170	32000	
782	0	32824	36148	27196	32024	
783	0	32860	36086	27185	32025	
784	0	32842	36082	27202	32008	
785	0	32809	36098	27184	32036	
786	0	32760	36120	27188	32044	
787	0	32700	35976	27174	32032	
788	0	32688	36078	27180	32036	
789	0	32711	36128	27180	32034	
790	0	32681	36096	27184	32028	
791	0	32596	36110	27168	32046	
792	0	32686	35992	27210	32022	
793	0	32840	36096	27196	32028	
794	0	32856	36004	27178	32065	
795	0	32811	36054	27158	32034	
796	0	32760	36116	27179	32032	
797	0	32700	36125	27176	32020	
798	0	32730	36152	27198	32020	
799	0	32808	36096	27200	32024	
800	0	32826	36128	27162	31998	
801	0	32858	36204	27176	32036	
802	0	32824	36224	27173	32053	
803	0	32824	36058	27182	32032	
804	0	32828	36184	27158	32022	
805	0	32848	36124	27164	32022	
806	0	32823	36128	27164	32030	
807	0	32808	36082	27138	32046	
808	0	32746	36064	27130	32024	
809	0	32676	36016	27130	32028	
810	0	32714	36056	27127	32048	
811	0	32728	36060	27110	32040	
812	0	32784	36140	27118	32040	
813	0	32836	35974	27118	32024	
814	0	32837	36021	27138	32026	
815	0	32880	36120	27144	32024	
816	0	32818	36052	27138	32012	
817	0	32788	35960	27136	31998	
818	0	32768	36034	27130	32012	
819	0	32768	36098	27146	32028	
820	0	32842	35950	27128	31998	
821	0	32820	36076	27132	31994	
822	0	32800	36076	27132	32011	
823	0	32740	36018	27156	32022	
824	0	32680	36168	27162	31994	
825	0	32636	36052	27156	32012	
826	0	32612	36054	27170	32024	
827	0	32636	36032	27148	32012	
828	0	32640	36022	27140	32020	
829	0	32648	36069	27128	32024	
830	0	32618	35848	27116	32030	
831	0	32660	35988	27118	32040	
832	0	32688	35970	27140	32032	
833	0	32710	35978	27136	32060	
834	0	32792	36020	27128	32024	
835	0	32840	36040	27090	32012	
836	0	32858	36132	27108	32024	
837	0	32910	36174	27106	31998	
838	0	32916	36000	27107	31992	
839	0	32886	36094	27092	32010	
840	0	32908	36004	27090	32022	
841	0	32908	36100	27073	32010	
842	0	32932	35968	27104	32008	
843	0	32900	36017	27136	31997	
844	0	32838	36037	27132	31994	
845	0	32842	35946	27131	32002	
846	0	32820	36030	27157	32006	
847	0	32805	36058	27170	32024	
848	0	32784	36068	27140	32011	
849	0	32786	36114	27137	32023	
850	0	32782	35984	27160	32020	
851	0	32818	35908	27126	32012	
852	0	32796	35976	27084	32010	
853	0	32780	36052	27092	32000	
854	0	32826	36075	27120	31992	
855	0	32846	36084	27148	32000	
856	0	32774	36040	27176	32031	
857	0	32728	36096	27168	32037	
858	0	32248	36167	27168	32020	
859	0	31711	36032	27170	32040	
860	0	31276	36112	27180	32032	
861	0	31454	36078	27162	32033	
862	0	31404	36140	27150	32037	
863	0	32020	36044	27142	32018	
864	0	33928	36025	27154	32011	
865	0	36184	36084	27152	32036	
866	0	39554	36142	27132	31978	
867	0	42848	36372	27132	32016	
868	0	46096	36392	27137	32046	
869	0	47430	36294	27112	32044	
870	0	43368	36364	27094	32058	
871	0	38176	36142	27116	32040	
872	0	34990	36058	27070	32034	
873	0	35370	36247	27076	32040	
874	0	34954	36244	27075	32018	
875	0	33954	36256	27070	32014	
876	0	32940	36228	27048	32028	
877	0	32048	36210	27050	32030	
878	0	31404	36120	27088	32042	
879	0	30956	36022	27088	32061	
880	0	30628	36000	27096	32066	
881	0	30426	35867	27132	32048	
882	0	30380	36104	27168	32060	
883	0	30392	36044	27216	32024	
884	0	30406	35956	27226	31992	
885	0	30464	36018	27214	32000	
886	0	30520	36074	27200	31988	
887	0	30600	36012	27168	31974	
888	0	30650	36144	27156	31994	
889	0	30740	36186	27124	31978	
890	0	30704	36129	27108	31996	
891	0	30704	36148	27070	32049	
892	0	30796	36132	27032	32074	
893	0	30896	36224	27026	32068	
894	0	30930	36105	27065	32066	
895	0	30984	36052	27099	32080	
896	0	30956	35984	27138	32080	
897	0	30936	35874	27156	32120	
898	0	30930	35952	27181	32122	
899	0	31028	35996	27210	32146	
900	0	31082	36044	27208	32138	
901	0	31104	36042	27212	32114	
902	0	31144	35912	27226	32096	
903	0	31165	35994	27218	32060	
904	0	31190	35929	27172	32052	
905	0	31162	35996	27148	32042	
906	0	31148	35918	27132	32022	
907	0	31212	36056	27132	32036	
908	0	31236	36052	27106	32020	
909	0	31264	36054	27080	32020	
910	0	31288	36084	27100	32037	
911	0	31264	36048	27074	32040	
912	0	31272	36136	27068	32008	
913	0	31288	36056	27072	32020	
914	0	31268	36060	27048	32026	
915	0	31300	36102	27072	32032	
916	0	31340	36142	27060	32045	
917	0	31337	36012	27054	32054	
918	0	31286	36150	27040	32042	
919	0	31214	36198	27062	32044	
920	0	31156	36096	27067	32048	
921	0	31104	36096	27082	32060	
922	0	31044	35962	27082	32060	
923	0	30966	35906	27108	32048	
924	0	30902	35844	27116	32038	
925	0	30822	35920	27108	32056	
926	0	30744	36068	27138	32044	
927	0	30652	35950	27120	32040	
928	0	30592	36034	27120	32052	
929	0	30610	36082	27118	32016	
930	0	30641	36054	27124	32025	
931	0	30680	36140	27132	32020	
932	0	30752	36050	27112	32040	
933	0	30792	35983	27130	32042	
934	0	30970	36044	27128	32060	
935	0	31146	36084	27132	32044	
936	0	31272	36110	27120	32052	
937	0	31363	36090	27118	32044	
938	0	31518	36028	27124	32052	
939	0	31676	36044	27140	32046	
940	0	31783	36032	27146	32028	
941	0	31970	36058	27144	32012	
942	0	32099	36064	27098	32036	
943	0	32208	36208	27122	32010	
944	0	32338	36180	27146	32024	
945	0	32408	36096	27160	32042	
946	0	32504	36088	27146	32032	
947	0	32636	36041	27116	32044	
948	0	32770	36110	27122	32064	
949	0	32822	35976	27146	32068	
950	0	32882	36116	27140	32044	
951	0	32888	36072	27155	32050	
952	0	32960	36076	27170	32036	
953	0	33036	36164	27148	32044	
954	0	33104	36058	27164	32055	
955	0	33106	36194	27152	32035	
956	0	33156	36170	27153	32040	
957	0	33088	36172	27170	32066	
958	0	33018	36264	27184	32020	
959	0	33038	36080	27146	32020	
960	0	33086	36116	27168	32006	
961	0	33140	36204	27148	32018	
962	0	33208	35956	27152	32040	
963	0	33202	35880	27118	32059	
964	0	33152	35892	27121	32060	
965	0	33120	36032	27129	32063	
966	0	33098	36040	27142	32058	
967	0	33100	36000	27130	32057	
968	0	33152	36076	27124	32052	
969	0	33208	35988	27148	32052	
970	0	33216	36070	27116	32020	
971	0	33256	36002	27108	32002	
972	0	33188	35924	27118	32016	
973	0	33138	36054	27118	32002	
974	0	33146	36040	27124	32040	
975	0	33168	35990	27124	32022	
976	0	33228	35972	27136	32026	
977	0	33236	35919	27152	32008	
978	0	33226	35956	27166	32018	
979	0	33220	36064	27160	32000	
980	0	33180	35904	27162	32000	
981	0	33170	35892	27152	31998	
982	0	33192	36014	27146	32000	
983	0	33184	36078	27145	32004	
984	0	33166	36080	27146	31984	
985	0	33208	35912	27119	32020	
986	0	33224	36058	27146	32010	
987	0	33198	35946	27130	32010	
988	0	33130	36073	27124	31996	
989	0	33078	36004	27136	31984	
990	0	33053	36006	27132	32016	
991	0	33044	35984	27116	32034	
992	0	33026	35874	27136	32038	
993	0	33034	36020	27100	32016	
994	0	32988	36064	27114	32034	
995	0	32948	35906	27136	32039	
996	0	32918	35860	27094	32016	
997	0	32972	35986	27132	32012	
998	0	33084	35920	27144	32024	
999	0	33082	35900	27164	32008	
1000	0	33124	35852	27114	32012	
1001	0	33146	36017	27112	32018	
1002	0	33152	36006	27124	32000	
1003	0	33180	35860	27112	32001	
1004	0	33156	35882	27146	32006	
1005	0	33172	35910	27104	32016	
1006	0	33156	35972	27110	32028	
1007	0	33160	35954	27121	32004	
1008	0	33222	35906	27106	32000	
1009	0	33208	35916	27112	32010	
1010	0	33210	35902	27122	32004	
1011	0	33236	35992	27120	32008	
1012	0	33174	36020	27128	31999	
1013	0	33129	35936	27128	32002	
1014	0	33156	36010	27125	31988	
1015	0	33152	36050	27108	31988	
1016	0	33096	36082	27142	31994	
1017	0	33032	36042	27112	31988	
1018	0	32992	36064	27114	31996	
1019	0	33004	36004	27100	32016	
1020	0	32966	35922	27124	32020	
1021	0	33036	36006	27096	32032	
1022	0	33061	35968	27096	32000	
1023	0	33056	35988	27107	32010	
1024	0	33002	36038	27086	32000	
1025	0	32954	36069	27122	32016	
1026	0	32544	36028	27128	32010	
1027	0	32040	36006	27110	32028	
1028	0	31596	35992	27107	32016	
1029	0	31606	36036	27126	32028	
1030	0	31314	36012	27116	32012	
1031	0	31696	36048	27109	32026	
1032	0	33656	36008	27128	32016	
1033	0	36458	36170	27109	31990	
1034	0	40440	36186	27108	32014	
1035	0	43968	36320	27108	32006	
1036	0	46888	36170	27100	32022	
1037	0	48276	36052	27116	32026	
1038	0	44358	36508	27108	32004	
1039	0	39532	36216	27104	32016	
1040	0	35720	36098	27080	32030	
1041	0	36410	36236	27102	32012	
1042	0	35644	36029	27084	32010	
1043	0	34167	36194	27082	32037	
1044	0	32846	36146	27088	32008	
1045	0	31790	36030	27062	32034	
1046	0	31144	36056	27076	32028	
1047	0	30747	36120	27068	32040	
1048	0	30548	35964	27076	32068	
1049	0	30444	35920	27140	32023	
1050	0	30378	35994	27166	32016	
1051	0	30374	35994	27212	31972	
1052	0	30424	35892	27244	31936	
1053	0	30478	36042	27212	31962	
1054	0	30536	35952	27204	31962	
1055	0	30606	36100	27224	31960	
1056	0	30732	36012	27214	31990	
1057	0	30756	35820	27192	31982	
1058	0	30814	35944	27198	31988	
1059	0	30840	35937	27132	31992	
1060	0	30878	36080	27062	32034	
1061	0	30924	36030	27024	32020	
1062	0	30986	36032	27054	32020	
1063	0	31008	36000	27006	31988	
1064	0	31028	36056	27047	32010	
1065	0	31054	35848	27086	31982	
1066	0	31082	35952	27114	32012	
1067	0	31032	35914	27168	31994	
1068	0	31072	36085	27176	32004	
1069	0	31096	35944	27200	31984	
1070	0	31108	36082	27224	32016	
1071	0	31084	36000	27242	32012	
1072	0	31098	35990	27211	32024	
1073	0	31050	35944	27192	32042	
1074	0	31098	35968	27176	32040	
1075	0	31109	35964	27121	32014	
1076	0	31134	35792	27124	32025	
1077	0	31160	35808	27080	32012	
1078	0	31118	35912	27072	31974	
1079	0	31148	35931	27058	31986	
1080	0	31070	35944	27061	31954	
1081	0	31070	35834	27026	31938	
1082	0	31036	35944	27060	31938	
1083	0	31046	35892	27028	31934	
1084	0	31016	35840	27018	31951	
1085	0	30996	35922	27012	31933	
1086	0	30952	35962	27028	31960	
1087	0	30908	35956	27020	31977	
1088	0	30840	35938	27020	31976	
1089	0	30784	35924	27022	31984	
1090	0	30724	35988	27012	32016	
1091	0	30638	35968	27040	32010	
1092	0	30512	35976	27044	32020	
1093	0	30418	35888	27026	32008	
1094	0	30356	36086	27028	32008	
1095	0	30378	35932	27044	32000	
1096	0	30365	35988	27080	31992	
1097	0	30392	35936	27043	31984	
1098	0	30472	36032	27098	31974	
1099	0	30536	35848	27080	32000	
1100	0	30648	35787	27040	32000	
1101	0	30708	35924	27076	32008	
1102	0	30788	35794	27072	31988	
1103	0	30904	35880	27089	31980	
1104	0	30994	35920	27084	32018	
1105	0	31032	35804	27066	32026	
1106	0	31104	36070	27072	32012	
1107	0	31216	35863	27074	32018	
1108	0	31372	35842	27086	32013	
1109	0	31529	36012	27094	32022	
1110	0	31714	36044	27098	32006	
1111	0	31914	35892	27096	32004	
1112	0	32072	35972	27088	32000	
1113	0	32237	35922	27085	31998	
1114	0	32396	35956	27108	31994	
1115	0	32570	35996	27108	31988	
1116	0	32704	35982	27120	31969	
1117	0	32854	35952	27090	31950	
1118	0	32964	36120	27108	31966	
1119	0	33128	35930	27106	31956	
1120	0	33210	35948	27106	31978	
1121	0	33248	35924	27090	31972	
1122	0	33292	35960	27086	31964	
1123	0	33320	36020	27060	31984	
1124	0	33284	35954	27080	31978	
1125	0	33334	35971	27086	32002	
1126	0	33381	35972	27070	32004	
1127	0	33361	35992	27094	31984	
1128	0	33368	36001	27096	31986	
1129	0	33376	35932	27064	32008	
1130	0	33364	36044	27068	31984	
1131	0	33364	36072	27106	31974	
1132	0	33314	36088	27072	31967	
1133	0	33336	36104	27072	31984	
1134	0	33346	35962	27068	31988	
1135	0	33348	35968	27066	32018	
1136	0	33350	36014	27041	32014	
1137	0	33354	36047	27086	32000	
1138	0	33316	36030	27083	32000	
1139	0	33304	35936	27086	32002	
1140	0	33338	35820	27076	31988	
1141	0	33338	35944	27078	32000	
1142	0	33328	36004	27086	31980	
1143	0	33332	36031	27042	32008	
1144	0	33353	36080	27062	31988	
1145	0	33316	35969	27034	32009	
1146	0	33340	35956	27048	32024	
1147	0	33301	35940	27072	32044	
1148	0	33328	35968	27066	32040	
1149	0	33372	35979	27088	32032	
1150	0	33366	36096	27060	32032	
1151	0	33364	35968	27063	32036	
1152	0	33326	35976	27104	32020	
1153	0	33359	35844	27076	32014	
1154	0	33252	35920	27094	32014	
1155	0	33200	35916	27070	32002	
1156	0	33198	35932	27080	31978	
1157	0	33186	35916	27068	31980	
1158	0	33096	36016	27052	32010	
1159	0	33124	36033	27084	32018	
1160	0	33134	35966	27068	31988	
1161	0	33223	36084	27054	32000	
1162	0	33284	36088	27080	32016	
1163	0	33270	35996	27096	32008	
1164	0	33284	36072	27080	31991	
1165	0	33288	35978	27072	32012	
1166	0	33362	36046	27074	31977	
1167	0	33428	36098	27078	31984	
1168	0	33440	35948	27060	32006	
1169	0	33439	35992	27061	31996	
1170	0	33360	35970	27054	31992	
1171	0	33308	35920	27064	31998	
1172	0	33308	35918	27054	31984	
1173	0	33310	35936	27051	31988	
1174	0	33308	35980	27068	32016	
1175	0	33252	35824	27082	32002	
1176	0	33280	35960	27060	31990	
1177	0	33280	35895	27051	31994	
1178	0	33290	35946	27062	31976	
1179	0	33296	35932	27068	31982	
1180	0	33258	35994	27056	32000	
1181	0	33218	36024	27081	31970	
1182	0	33248	35893	27070	32000	
1183	0	33212	35884	27061	31992	
1184	0	33218	35934	27072	31998	
1185	0	33224	35952	27070	32002	
1186	0	33214	35892	27080	31980	
1187	0	33144	35868	27060	31978	
1188	0	33160	35983	27068	31991	
1189	0	33098	35960	27080	31984	
1190	0	32624	35970	27056	31972	
1191	0	32128	36020	27087	31977	
1192	0	31744	35937	27062	31998	
1193	0	31676	35840	27045	31966	
1194	0	31548	35978	27028	31960	
1195	0	32560	35980	27044	31982	
1196	0	35043	36068	27038	31980	
1197	0	38218	36056	27038	32012	
1198	0	42244	36164	27024	32010	
1199	0	45546	36246	27080	31978	
1200	0	47900	36106	27068	31996	
1201	0	47244	36076	27088	31996	
1202	0	42546	36292	27100	31982	
1203	0	37572	36096	27088	31988	
1204	0	36078	36110	27068	31989	
1205	0	36357	36112	27091	31994	
1206	0	35112	36160	27064	31970	
1207	0	33790	36108	27030	31976	
1208	0	32602	36002	27076	31970	
1209	0	31784	35924	27062	32004	
1210	0	31224	35916	27100	31996	
1211	0	30958	35816	27104	31998	
1212	0	30770	35825	27140	32018	
1213	0	30668	35954	27174	31988	
1214	0	30704	36024	27212	31952	
1215	0	30720	35868	27177	31960	
1216	0	30748	35930	27168	31950	
1217	0	30792	35820	27129	31940	
1218	0	30784	36028	27120	31932	
1219	0	30808	36168	27138	31966	
1220	0	30880	36058	27144	31960	
1221	0	30885	35892	27087	31968	
1222	0	30920	35984	27080	31988	
1223	0	30938	35929	27036	32008	
1224	0	31010	36080	26992	32009	
1225	0	31070	36024	26973	32052	
1226	0	31044	35910	26972	32020	
1227	0	31098	35936	27040	32028	
1228	0	31106	35936	26998	32010	
1229	0	31172	35950	27016	32000	
1230	0	31172	35840	27112	31978	
1231	0	31212	35946	27112	31970	
1232	0	31204	36008	27112	31961	
1233	0	31232	35880	27124	31970	
1234	0	31232	35954	27145	31940	
1235	0	31220	35892	27146	31934	
1236	0	31282	36084	27126	31953	
1237	0	31290	36032	27128	31958	
1238	0	31280	35898	27086	31982	
1239	0	31312	35948	27068	32010	
1240	0	31330	35976	27052	32018	
1241	0	31326	35856	27040	32012	
1242	0	31284	35980	27032	32034	
1243	0	31264	35925	27050	32020	
1244	0	31298	35920	27038	31974	
1245	0	31306	35972	27051	31944	
1246	0	31256	35892	27060	31946	
1247	0	31290	35930	27024	31934	
1248	0	31224	36008	27020	31916	
1249	0	31242	35912	27028	31914	
1250	0	31256	35900	27016	31904	
1251	0	31204	35934	27012	31948	
1252	0	31138	36004	27050	31940	
1253	0	31066	35856	27020	31976	
1254	0	30996	35922	27028	31991	
1255	0	30920	35892	27032	31976	
1256	0	30958	35985	27040	31991	
1257	0	30882	35888	27026	32008	
1258	0	30901	35916	27051	31999	
1259	0	30897	35982	27066	31980	
1260	0	30890	35896	27061	31990	
1261	0	31002	35968	27056	32000	
1262	0	31048	35996	27056	31996	
1263	0	31140	35884	27060	31968	
1264	0	31166	35938	27054	31952	
1265	0	31252	35904	27041	31960	
1266	0	31314	35922	27082	31950	
1267	0	31420	35888	27072	31970	
1268	0	31490	35880	27028	31980	
1269	0	31512	35804	27082	31984	
1270	0	31618	35832	27070	31998	
1271	0	31718	35915	27048	31984	
1272	0	31860	35968	27066	31970	
1273	0	31994	35994	27058	31985	
1274	0	32108	35962	27074	31984	
1275	0	32220	35952	27052	31984	
1276	0	32368	36028	27057	31995	
1277	0	32504	35853	27072	31970	
1278	0	32673	35884	27072	31964	
1279	0	32862	35944	27058	31958	
1280	0	32992	35996	27058	31968	
1281	0	33084	35952	27084	31964	
1282	0	33192	35928	27058	31952	
1283	0	33232	35874	27082	31968	
1284	0	33292	35930	27026	31950	
1285	0	33364	36068	27046	31956	
1286	0	33356	35940	27060	31962	
1287	0	33392	36088	27070	31976	
1288	0	33416	35980	27057	31982	
1289	0	33388	35944	27035	31960	
1290	0	33376	35922	27032	31957	
1291	0	33364	35888	27060	31942	
1292	0	33372	35984	27068	31960	
1293	0	33333	35996	27078	31964	
1294	0	33332	35947	27082	31934	
1295	0	33308	35900	27047	31950	
1296	0	33314	35936	27060	31949	
1297	0	33332	35930	27056	31928	
1298	0	33300	35896	27074	31930	
1299	0	33292	35970	27084	31948	
1300	0	33318	35996	27096	31936	
1301	0	33326	35982	27036	31932	
1302	0	33312	35908	27054	31916	
1303	0	33280	35778	27072	31918	
1304	0	33311	36008	27054	31926	
1305	0	33296	35872	27072	31936	
1306	0	33255	35824	27076	31936	
1307	0	33324	35978	27066	31948	
1308	0	33316	35929	27081	31968	
1309	0	33336	35914	27060	31946	
1310	0	33296	35898	27068	31964	
1311	0	33280	35949	27096	31948	
1312	0	33336	35966	27072	31926	
1313	0	33336	35864	27092	31924	
1314	0	33352	35834	27073	31932	
1315	0	33335	35912	27092	31924	
1316	0	33378	35930	27089	31910	
1317	0	33360	36008	27072	31928	
1318	0	33294	35924	27057	31932	
1319	0	33352	35996	27052	31944	
1320	0	33352	36050	27074	31920	
1321	0	33384	36010	27066	31924	
1322	0	33338	35986	27090	31906	
1323	0	33330	35960	27068	31924	
1324	0	33320	35952	27060	31918	
1325	0	33272	35895	27068	31920	
1326	0	33198	35996	27064	31932	
1327	0	33144	35974	27048	31920	
1328	0	33136	35752	27060	31928	
1329	0	33174	35962	27052	31944	
1330	0	33094	35900	27072	31938	
1331	0	33176	36018	27060	31922	
1332	0	33162	35980	27062	31936	
1333	0	33222	35977	27068	31936	
1334	0	33244	35767	27036	31924	
1335	0	33296	35952	27044	31918	
1336	0	33318	36024	27040	31916	
1337	0	33334	35880	27047	31936	
1338	0	33332	35917	27040	31932	
1339	0	33294	36008	27040	31954	
1340	0	33332	35810	27041	31930	
1341	0	33296	35877	27074	31932	
1342	0	33300	35964	27045	31932	
1343	0	33288	35976	27034	31962	
1344	0	33286	35962	27060	31949	
1345	0	33246	35998	27060	31920	
1346	0	33288	35910	27066	31904	
1347	0	33220	35872	27054	31906	
1348	0	33164	36036	27057	31916	
1349	0	33223	35916	27048	31918	
1350	0	33218	35892	27066	31922	
1351	0	33204	35996	27036	31904	
1352	0	33192	35978	27049	31936	
1353	0	33132	35996	27048	31932	
1354	0	33098	35830	27043	31945	
1355	0	33108	35918	27084	31916	
1356	0	33018	35826	27060	31902	
1357	0	33072	35946	27058	31928	
1358	0	33070	35944	27078	31954	
1359	0	33048	35898	27092	31948	
1360	0	32768	36012	27076	31948	
1361	0	32186	35856	27080	31950	
1362	0	31730	35834	27071	31930	
1363	0	31732	36020	27070	31922	
1364	0	31698	35832	27064	31923	
1365	0	32292	35956	27072	31948	
1366	0	34190	35934	27067	31926	
1367	0	36904	36028	27104	31920	
1368	0	40568	36170	27060	31932	
1369	0	43896	36304	27084	31948	
1370	0	46472	36076	27088	31890	
1371	0	47016	36086	27088	31926	
1372	0	43340	36271	27056	31940	
1373	0	38620	36022	27082	31934	
1374	0	35936	36042	27058	31936	
1375	0	36272	36102	27060	31940	
1376	0	35368	36092	27040	31924	
1377	0	34124	36010	27048	31916	
1378	0	32974	35956	27034	31940	
1379	0	32028	35834	27041	31960	
1380	0	31400	35740	27054	31960	
1381	0	31028	35772	27064	31946	
1382	0	30858	35840	27090	31950	
1383	0	30774	35998	27143	31917	
1384	0	30752	35972	27128	31892	
1385	0	30754	35840	27136	31892	
1386	0	30814	35680	27082	31874	
1387	0	30810	35832	27076	31874	
1388	0	30832	35886	27082	31898	
1389	0	30880	36092	27066	31890	
1390	0	30882	36008	27090	31890	
1391	0	30886	35984	27080	31896	
1392	0	30988	35848	27065	31892	
1393	0	31040	35828	27000	31970	
1394	0	31056	35840	27020	31967	
1395	0	31074	36072	27018	31972	
1396	0	31114	35911	27000	31974	
1397	0	31082	35998	26992	31968	
1398	0	31130	35892	27012	31954	
1399	0	31158	35730	27040	31938	
1400	0	31224	36016	27042	31900	
1401	0	31280	35932	27048	31931	
1402	0	31306	35948	27100	31919	
1403	0	31300	35960	27090	31904	
1404	0	31316	36072	27090	31882	
1405	0	31340	35874	27112	31896	
1406	0	31300	35760	27074	31912	
1407	0	31338	35828	27070	31892	
1408	0	31332	35902	27064	31918	
1409	0	31316	35836	27025	31946	
1410	0	31298	35852	27012	31956	
1411	0	31288	35908	27018	31942	
1412	0	31410	35868	26990	31956	
1413	0	31350	35864	27008	31958	
1414	0	31452	35884	27008	31928	
1415	0	31396	35886	27010	31926	
1416	0	31386	35828	27020	31904	
1417	0	31404	35946	27013	31912	
1418	0	31360	35892	27024	31910	
1419	0	31444	35796	27014	31914	
1420	0	31438	35916	27020	31904	
1421	0	31392	35866	27015	31924	
1422	0	31336	35892	27024	31944	
1423	0	31300	35840	27032	31928	
1424	0	31206	35856	27028	31938	
1425	0	31168	35924	27008	31952	
1426	0	31212	35804	27015	31940	
1427	0	31140	35912	27040	31978	
1428	0	31168	35946	27046	31936	
1429	0	31160	35908	27058	31956	
1430	0	31217	35904	27046	31945	
1431	0	31224	35976	27028	31910	
1432	0	31314	35894	27048	31938	
1433	0	31360	35920	27034	31938	
1434	0	31412	35818	27044	31930	
1435	0	31462	35834	27052	31919	
1436	0	31526	35948	27058	31936	
1437	0	31570	35956	27080	31938	
1438	0	31670	35972	27052	31956	
1439	0	31722	35904	27064	31946	
1440	0	31812	35868	27080	31962	
1441	0	31864	35768	27082	31952	
1442	0	31948	35792	27028	31960	
1443	0	32063	35841	27056	31946	
1444	0	32144	35922	27052	31956	
1445	0	32256	35860	27076	31972	
1446	0	32354	36130	27063	31928	
1447	0	32496	35936	27064	31962	
1448	0	32608	35952	27071	31926	
1449	0	32676	35884	27054	31920	
1450	0	32794	35821	27064	31916	
1451	0	32842	35786	27032	31928	
1452	0	32856	36028	27038	31956	
1453	0	32968	35896	27050	31956	
1454	0	33010	35972	27036	31956	
1455	0	33068	35968	27034	31950	
1456	0	33042	35976	27041	31954	
1457	0	33114	35924	27024	31934	
1458	0	33114	35832	27013	31928	
1459	0	33118	35968	27040	31940	
1460	0	33178	35976	27058	31940	
1461	0	33168	35922	27042	31951	
1462	0	33148	35952	27042	31938	
1463	0	33206	35998	27028	31934	
1464	0	33222	35986	27042	31940	
1465	0	33193	35964	27040	31920	
1466	0	33166	35994	27034	31928	
1467	0	33136	36036	27026	31904	
1468	0	33210	35950	27032	31906	
1469	0	33188	35770	27007	31914	
1470	0	33204	35962	27032	31914	
1471	0	33224	35732	27024	31944	
1472	0	33216	35910	27052	31948	
1473	0	33274	35746	27036	31948	
1474	0	33308	35852	27031	31960	
1475	0	33344	35920	27006	31948	
1476	0	33360	35912	27030	31964	
1477	0	33370	35946	27041	31956	
1478	0	33370	35868	27036	31988	
1479	0	33352	35974	27012	31968	
1480	0	33378	35842	27040	31942	
1481	0	33362	35908	27037	31936	
1482	0	33308	35918	27020	31940	
1483	0	33345	35948	27028	31946	
1484	0	33356	35972	27044	31942	
1485	0	33332	35892	27032	31954	
1486	0	33376	35895	27040	31928	
1487	0	33336	35972	27030	31940	
1488	0	33326	35904	27012	31948	
1489	0	33318	35992	27033	31947	
1490	0	33282	35941	27024	31940	
1491	0	33280	35994	27012	31941	
1492	0	33252	35988	27012	31956	
1493	0	33206	35914	27008	31962	
1494	0	33196	36032	27028	31958	
1495	0	33244	35938	27008	31993	
1496	0	33250	35934	27032	31954	
1497	0	33270	35994	27022	31965	
1498	0	33280	36074	27046	31950	
1499	0	33218	35868	27044	31960	
1500	0	33186	35968	27032	31966	
1501	0	33128	36004	27020	31962	
1502	0	33134	35946	27028	31965	
1503	0	33176	36020	27026	31932	
1504	0	33160	35984	27018	31956	
1505	0	33096	35940	27028	31954	
1506	0	33040	35956	27023	31940	
1507	0	33036	36038	27022	31960	
1508	0	33048	35906	27042	31934	
1509	0	33012	35916	27028	31964	
1510	0	33062	35832	27038	31966	
1511	0	33055	36084	27052	31980	
1512	0	33012	35989	27048	31984	
1513	0	33068	35947	27040	31976	
1514	0	33006	35944	27034	31936	
1515	0	33033	35938	27050	31944	
1516	0	33100	35898	27060	31948	
1517	0	33136	35952	27060	31944	
1518	0	33172	36036	27064	31924	
1519	0	33214	35840	27038	31956	
1520	0	33304	36002	27058	31938	
1521	0	33143	36008	27042	31936	
1522	0	33206	35866	27074	31942	
1523	0	33184	35954	27080	31959	
1524	0	33162	35888	27082	31950	
1525	0	33183	35946	27072	31972	
1526	0	33186	35988	27087	31932	
1527	0	33130	35941	27088	31954	
1528	0	33008	35870	27096	31940	
1529	0	33052	36001	27091	31932	
1530	0	33112	35890	27078	31956	
1531	0	33024	35944	27074	31968	
1532	0	33036	35842	27072	31956	
1533	0	33008	35864	27064	31948	
1534	0	32990	35880	27062	31988	
1535	0	32918	35936	27080	31970	
1536	0	32954	35947	27076	31976	
1537	0	32936	35860	27065	31970	
1538	0	33008	36008	27048	31984	
1539	0	33024	35852	27060	31964	
1540	0	32978	35956	27052	31960	
1541	0	32690	35917	27058	31972	
1542	0	32134	35917	27052	31965	
1543	0	31768	35966	27036	31990	
1544	0	31868	35810	27056	31980	
1545	0	31968	35846	27052	31972	
1546	0	32635	35852	27050	31958	
1547	0	34382	35900	27060	31976	
1548	0	36650	36064	27046	31964	
1549	0	39788	36194	27080	31972	
1550	0	42790	36184	27056	31984	
1551	0	45312	36138	27062	31968	
1552	0	45824	36244	27064	31972	
1553	0	42392	36286	27076	31958	
1554	0	37636	36004	27080	31992	
1555	0	35016	35945	27050	31989	
1556	0	35712	36174	27050	31972	
1557	0	35248	36052	27012	31982	
1558	0	34074	36016	27010	31969	
1559	0	33056	36104	27016	31962	
1560	0	32172	35896	26998	31946	
1561	0	31592	35848	26990	31962	
1562	0	31240	35840	27016	32000	
1563	0	31044	35828	27074	32008	
1564	0	30976	35794	27091	31980	
1565	0	30959	35946	27118	31952	
1566	0	31100	35824	27098	31908	
1567	0	31056	35828	27084	31908	
1568	0	31196	35662	27050	31906	
1569	0	31104	35706	27095	31918	
1570	0	31148	35920	27102	31982	
1571	0	31168	36090	27098	31980	
1572	0	31240	36108	27080	31998	
1573	0	31329	36020	27050	32004	
1574	0	31296	35874	27008	32022	
1575	0	31366	35996	27012	32028	
1576	0	31428	35994	27024	32032	
1577	0	31324	35884	27026	32023	
1578	0	31339	35956	27036	32015	
1579	0	31420	35900	27082	32028	
1580	0	31444	36140	27091	31983	
1581	0	31456	36030	27088	31966	
1582	0	31516	35928	27130	31944	
1583	0	31532	35806	27120	31928	
1584	0	31586	35850	27102	31928	
1585	0	31632	35944	27099	31920	
1586	0	31661	35835	27068	31938	
1587	0	31584	35950	27041	31936	
1588	0	31586	35908	27038	31976	
1589	0	31692	35880	27030	31994	
1590	0	31616	35994	27008	31980	
1591	0	31735	35996	27015	32002	
1592	0	31748	35930	26994	32004	
1593	0	31810	35908	26986	31986	
1594	0	31880	35928	26988	31968	
1595	0	31866	36104	26998	31958	
1596	0	31828	35868	26996	31936	
1597	0	31854	35960	26990	31914	
1598	0	31788	35912	26972	31944	
1599	0	31842	35880	27013	31926	
1600	0	31872	35908	27012	31953	
1601	0	31912	35950	26988	31937	
1602	0	31760	35841	26956	31968	
1603	0	31660	35858	26986	31966	
1604	0	31614	35850	26988	31984	
1605	0	31612	35818	27018	31989	
1606	0	31596	35950	27066	31988	
1607	0	31600	35896	27052	31978	
1608	0	31628	35840	27060	31996	
1609	0	31696	35950	27048	31984	
1610	0	31656	35836	27060	32000	
1611	0	31628	36004	27094	31992	
1612	0	31608	35922	27074	31986	
1613	0	31612	35916	27096	32002	
1614	0	31694	35786	27104	31966	
1615	0	31816	35878	27100	32006	
1616	0	31884	35948	27100	32004	
1617	0	31912	35900	27082	31990	
1618	0	31904	35754	27108	31980	
1619	0	31975	36072	27096	31966	
1620	0	32068	35942	27094	31962	
1621	0	32144	35952	27112	31956	
1622	0	32186	36040	27078	31972	
1623	0	32284	35840	27112	31948	
1624	0	32328	35902	27076	31984	
1625	0	32373	35960	27084	31976	
1626	0	32426	36009	27058	31986	
1627	0	32480	35984	27098	31982	
1628	0	32516	35990	27084	31968	
1629	0	32566	35932	27114	31936	
1630	0	32650	35956	27086	31988	
1631	0	32608	35876	27064	31992	
1632	0	32622	36132	27058	31992	
1633	0	32740	36020	27074	32004	
1634	0	32808	36011	27084	31978	
1635	0	32801	36002	27056	31994	
1636	0	32828	35918	27076	31990	
1637	0	32901	35986	27042	31967	
1638	0	32946	35894	27018	31977	
1639	0	32914	35952	26999	31962	
1640	0	32908	35928	27024	31958	
1641	0	32942	35998	27058	31976	
1642	0	32966	35824	27048	31973	
1643	0	33004	35897	27050	31980	
1644	0	33066	35864	27064	31981	
1645	0	33126	35968	27060	31980	
1646	0	33192	35970	27112	31960	
1647	0	33181	36005	27094	31966	
1648	0	33160	35818	27064	31968	
1649	0	33160	35908	27100	31936	
1650	0	33124	35962	27074	31956	
1651	0	33194	35972	27076	31956	
1652	0	33172	35832	27084	31982	
1653	0	33168	35916	27096	31976	
1654	0	33224	36048	27096	31986	
1655	0	33256	35976	27075	31984	
1656	0	33330	35872	27104	31972	
1657	0	33332	35914	27098	31942	
1658	0	33242	35864	27117	31976	
1659	0	33184	35972	27063	31972	
1660	0	33180	35858	27097	31970	
1661	0	33272	35886	27070	31938	
1662	0	33284	35876	27090	31956	
1663	0	33284	35994	27076	31952	
1664	0	33266	35929	27091	31936	
1665	0	33250	35882	27085	31946	
1666	0	33272	35888	27084	31956	
1667	0	33224	36053	27072	31974	
1668	0	33197	36084	27056	31946	
1669	0	33144	35968	27040	31952	
1670	0	33248	35880	27078	31944	
1671	0	33260	36028	27050	31958	
1672	0	33256	36012	27080	31948	
1673	0	33152	36016	27064	31955	
1674	0	33002	35910	27068	31948	
1675	0	32992	36048	27056	31930	
1676	0	33044	35928	27058	31954	
1677	0	33073	35946	27094	31928	
1678	0	33178	35852	27054	31966	
1679	0	33256	35924	27036	31956	
1680	0	33210	35994	27068	31950	
1681	0	33125	35810	27050	31944	
1682	0	33058	35872	27052	31948	
1683	0	32954	35936	27046	31956	
1684	0	32868	36000	27065	31936	
1685	0	32884	35924	27056	31952	
1686	0	32852	35902	27088	31914	
1687	0	32826	36010	27070	31930	
1688	0	32900	36026	27064	31944	
1689	0	32890	35974	27062	31936	
1690	0	32876	35948	27092	31938	
1691	0	32958	35872	27096	31938	
1692	0	33121	35977	27088	31938	
1693	0	33178	35954	27068	31960	
1694	0	33088	35970	27072	31960	
1695	0	33156	36008	27090	31926	
1696	0	33204	35988	27088	31940	
1697	0	33154	35969	27054	31938	
1698	0	33100	35864	27076	31940	
1699	0	32930	36056	27060	31945	
1700	0	32876	35980	27064	31957	
1701	0	32916	36012	27056	31950	
1702	0	32956	36005	27042	31941	
1703	0	32904	35924	27056	31942	
1704	0	32928	36120	27076	31940	
1705	0	32946	35924	27069	31936	
1706	0	32972	35982	27063	31946	
1707	0	33002	35962	27039	31965	
1708	0	33046	35816	27026	31958	
1709	0	32978	35906	27077	31962	
1710	0	32972	35920	27060	31980	
1711	0	33008	35948	27040	31982	
1712	0	32910	35854	27060	31962	
1713	0	32926	35909	27062	31960	
1714	0	33008	35908	27070	31942	
1715	0	33004	35954	27047	31966	
1716	0	32620	35918	27062	31984	
1717	0	31968	35860	27042	31994	
1718	0	31533	35892	27062	31984	
1719	0	31704	35928	27094	31968	
1720	0	31826	35916	27064	31964	
1721	0	32497	36006	27086	31972	
1722	0	34356	35964	27116	31968	
1723	0	36372	36062	27100	31976	
1724	0	39320	36145	27090	31968	
1725	0	42513	36288	27082	31950	
1726	0	45700	36256	27090	31960	
1727	0	46856	36110	27108	31976	
1728	0	42330	36260	27104	31982	
1729	0	36596	36060	27108	31970	
1730	0	33768	35960	27112	31972	
1731	0	34962	36010	27108	31972	
1732	0	34826	36250	27088	31982	
1733	0	33796	36130	27084	31964	
1734	0	33054	36100	27102	31927	
1735	0	32488	36114	27084	31914	
1736	0	31996	35888	27048	31940	
1737	0	31560	35658	27048	31972	
1738	0	31370	35664	27046	32002	
1739	0	31140	35980	27047	31992	
1740	0	30956	35856	27068	31950	
1741	0	30954	35882	27076	31950	
1742	0	30996	35744	27064	31934	
1743	0	30934	35628	27096	31968	
1744	0	30976	35890	27105	31996	
1745	0	31072	35686	27128	31980	
1746	0	31146	35972	27204	31982	
1747	0	31120	35980	27214	31953	
1748	0	31132	36096	27224	31954	
1749	0	31108	36234	27185	31952	
1750	0	31096	36130	27176	31917	
1751	0	31204	36216	27162	31924	
1752	0	31330	36196	27144	31952	
1753	0	31378	36124	27146	31972	
1754	0	31404	35924	27148	32010	
1755	0	31390	36030	27104	32041	
1756	0	31392	35952	27088	32040	
1757	0	31520	36014	27068	32024	
1758	0	31566	36020	27094	32034	
1759	0	31682	35991	27044	32040	
1760	0	31722	36016	27072	32002	
1761	0	31600	36000	27016	32006	
1762	0	31546	36010	27024	31988	
1763	0	31496	35968	27000	31984	
1764	0	31534	36064	27008	31946	
1765	0	31703	36042	27000	31952	
1766	0	31753	35962	26981	31964	
1767	0	31750	36044	26986	31952	
1768	0	31748	35982	26961	31902	
1769	0	31798	36028	26994	31934	
1770	0	31884	35988	27036	31906	
1771	0	31760	35854	27024	31900	
1772	0	31772	35938	27040	31894	
1773	0	31746	35876	27040	31911	
1774	0	31734	35990	27072	31916	
1775	0	31890	35928	27052	31922	
1776	0	31856	35908	27056	31946	
1777	0	31904	36071	27076	31952	
1778	0	31770	35960	27080	31968	
1779	0	31836	35892	27100	31954	
1780	0	31768	35930	27086	31980	
1781	0	31644	35902	27108	31952	
1782	0	31602	35828	27112	31978	
1783	0	31560	35886	27108	32008	
1784	0	31528	35928	27120	31980	
1785	0	31606	35928	27112	31982	
1786	0	31776	35938	27128	31970	
1787	0	31760	35968	27142	31992	
1788	0	31840	35992	27132	31976	
1789	0	31808	36016	27140	31968	
1790	0	31726	35880	27135	31962	
1791	0	31758	35880	27118	31980	
1792	0	31736	35972	27112	32006	
1793	0	31884	35986	27120	31970	
1794	0	31988	36080	27129	32000	
1795	0	32094	36138	27148	31994	
1796	0	32182	35932	27136	32010	
1797	0	32363	36052	27129	31956	
1798	0	32474	35988	27114	31978	
1799	0	32504	36024	27102	31968	
1800	0	32510	36098	27089	31976	
1801	0	32654	35990	27084	31973	
1802	0	32700	35992	27076	31955	
1803	0	32660	35918	27082	31968	
1804	0	32740	36088	27094	31986	
1805	0	32784	35946	27108	31974	
1806	0	32804	35926	27104	31936	
1807	0	32738	36062	27076	31970	
1808	0	32730	36028	27100	31972	
1809	0	32816	36188	27096	31968	
1810	0	32748	36089	27098	31946	
1811	0	32706	35982	27128	31930	
1812	0	32790	35968	27096	31958	
1813	0	32848	35982	27064	31958	
1814	0	32818	35936	27072	31974	
1815	0	32878	36012	27068	31980	
1816	0	32864	36064	27080	31988	
1817	0	32730	36044	27104	31981	
1818	0	32692	35878	27120	31966	
1819	0	32744	35988	27136	32006	
1820	0	32822	35944	27140	32012	
1821	0	32856	35932	27144	32000	
1822	0	32831	36002	27168	31998	
1823	0	32794	35992	27149	32006	
1824	0	32840	36004	27117	32002	
1825	0	32920	36017	27148	32032	
1826	0	32924	35928	27104	31992	
1827	0	32958	36020	27136	32012	
1828	0	33076	35970	27128	32004	
1829	0	33048	36108	27138	32012	
1830	0	32952	36106	27142	32000	
1831	0	33088	36052	27144	32002	
1832	0	33048	35900	27156	32006	
1833	0	32980	36092	27162	31992	
1834	0	32974	35970	27156	31986	
1835	0	32949	36020	27140	32012	
1836	0	33036	36004	27150	32008	
1837	0	33044	35978	27136	31998	
1838	0	33010	36022	27158	32000	
1839	0	33152	36064	27148	32012	
1840	0	33170	36012	27136	31984	
1841	0	33028	36064	27137	32000	
1842	0	32944	35964	27114	32001	
1843	0	33050	36066	27098	31989	
1844	0	33116	35960	27100	31986	
1845	0	33138	35967	27106	31992	
1846	0	33026	35920	27098	32008	
1847	0	33062	36000	27086	32008	
1848	0	32868	35993	27084	32012	
1849	0	32756	35964	27098	31996	
1850	0	32866	36058	27088	31981	
1851	0	32928	36044	27099	31978	
1852	0	32880	35975	27104	31966	
1853	0	32810	35884	27076	31972	
1854	0	32772	36088	27096	31962	
1855	0	32794	35924	27098	31978	
1856	0	32928	35976	27104	31998	
1857	0	32994	36148	27095	31990	
1858	0	33022	35978	27104	31994	
1859	0	32939	35968	27096	31988	
1860	0	32972	36025	27090	31996	
1861	0	33170	35864	27124	31978	
1862	0	33200	35978	27088	31993	
1863	0	33113	35962	27062	32004	
1864	0	32966	35988	27110	31980	
1865	0	32968	36028	27078	32000	
1866	0	33014	35922	27082	31992	
1867	0	33056	35954	27080	31974	
1868	0	33108	35914	27088	31993	
1869	0	33072	36104	27090	31982	
1870	0	32984	35948	27105	31996	
1871	0	32860	35940	27112	31976	
1872	0	32860	35876	27112	31978	
1873	0	32944	36085	27092	31978	
1874	0	32980	35888	27118	31978	
1875	0	32920	36042	27124	31994	
1876	0	32952	35880	27116	31992	
1877	0	32942	35926	27125	31972	
1878	0	32858	35860	27134	31976	
1879	0	32848	35936	27136	32006	
1880	0	32852	35852	27130	31990	
1881	0	32808	36020	27115	31990	
1882	0	32829	36012	27104	32000	
1883	0	32892	35954	27108	31992	
1884	0	32696	36104	27133	31992	
1885	0	32112	36032	27112	32000	
1886	0	31600	35960	27100	31994	
1887	0	31664	35910	27140	32036	
1888	0	31748	35984	27122	32028	
1889	0	32162	35952	27134	31988	
1890	0	33764	35928	27116	31994	
1891	0	35748	35968	27138	32018	
1892	0	38551	36114	27112	32010	
1893	0	41890	36268	27132	32002	
1894	0	45440	36192	27120	31992	
1895	0	48064	36104	27118	32015	
1896	0	45572	36146	27106	31996	
1897	0	39766	36152	27096	31996	
1898	0	34564	36020	27086	32007	
1899	0	34560	35949	27084	31992	
1900	0	34970	36190	27044	32000	
1901	0	34064	36232	27070	31978	
1902	0	33165	36154	27060	31986	
1903	0	32398	35992	27054	32004	
1904	0	31750	35824	27068	31992	
1905	0	31276	35831	27056	32042	
1906	0	30924	35868	27034	32060	
1907	0	30710	35767	27046	32044	
1908	0	30509	35762	27058	32021	
1909	0	30450	35844	27136	31998	
1910	0	30526	35745	27161	31980	
1911	0	30580	35780	27156	32004	
1912	0	30646	35868	27156	32020	
1913	0	30800	35940	27192	31998	
1914	0	30880	35932	27190	31968	
1915	0	30898	36164	27168	31948	
1916	0	30890	36100	27148	31924	
1917	0	30844	36111	27082	31932	
1918	0	30840	35986	27074	31932	
1919	0	30952	36052	27066	31960	
1920	0	31006	35928	27068	31976	
1921	0	31148	35984	27064	31988	
1922	0	31244	35924	27064	32014	
1923	0	31272	35948	27076	32060	
1924	0	31240	35852	27106	32046	
1925	0	31201	35888	27098	32072	
1926	0	31268	35858	27104	32060	
1927	0	31276	35944	27087	32024	
1928	0	31249	35960	27082	32022	
1929	0	31160	35882	27028	31992	
1930	0	31240	35954	27050	31976	
1931	0	31389	35952	27032	31976	
1932	0	31494	35966	27012	31948	
1933	0	31554	35970	27010	31952	
1934	0	31588	35948	27010	31936	
1935	0	31582	35960	27040	31946	
1936	0	31589	35976	27038	31948	
1937	0	31612	36004	27010	31956	
1938	0	31582	35958	27028	31953	
1939	0	31600	35946	27013	31956	
1940	0	31600	35850	27042	31994	
1941	0	31596	35892	27050	31983	
1942	0	31528	36024	27056	31976	
1943	0	31488	35916	27060	31962	
1944	0	31550	35854	27076	31968	
1945	0	31592	35872	27060	31972	
1946	0	31620	35928	27096	31996	
1947	0	31634	35836	27074	32020	
1948	0	31524	36058	27084	31989	
1949	0	31488	36010	27078	31994	
1950	0	31380	35872	27080	31979	
1951	0	31308	35902	27094	31964	
1952	0	31218	35950	27096	31978	
1953	0	31196	35984	27094	31990	
1954	0	31176	36002	27080	31996	
1955	0	31136	35988	27082	32000	
1956	0	31180	35904	27088	31988	
1957	0	31196	35920	27077	31976	
1958	0	31248	35968	27056	31994	
1959	0	31288	35916	27090	31998	
1960	0	31492	35962	27090	31984	
1961	0	31584	35938	27084	31991	
1962	0	31702	35975	27064	31984	
1963	0	31736	36006	27088	31992	
1964	0	31780	36070	27080	31994	
1965	0	31897	35990	27100	31968	
1966	0	31984	36005	27090	31996	
1967	0	32102	36064	27117	31968	
1968	0	32162	35964	27108	31971	
1969	0	32320	36130	27088	31976	
1970	0	32486	35880	27086	31960	
1971	0	32579	35976	27076	31972	
1972	0	32640	35880	27074	31970	
1973	0	32708	35978	27076	31980	
1974	0	32724	36056	27084	31972	
1975	0	32716	35905	27074	31984	
1976	0	32720	35884	27068	31972	
1977	0	32756	36012	27068	31972	
1978	0	32740	35920	27089	31970	
1979	0	32738	35993	27104	31980	
1980	0	32831	35898	27082	31989	
1981	0	32884	36032	27090	31996	
1982	0	32889	36008	27118	31928	
1983	0	32918	36030	27119	31964	
1984	0	32924	35938	27121	31960	
1985	0	32872	36042	27073	31968	
1986	0	32864	36023	27080	31970	
1987	0	32864	35960	27085	31940	
1988	0	32878	36080	27064	31962	
1989	0	32823	35928	27072	31992	
1990	0	32776	36104	27072	31980	
1991	0	32854	35954	27072	31978	
1992	0	32892	35916	27098	31980	
1993	0	32968	36020	27114	31936	
1994	0	33028	35924	27080	31972	
1995	0	33030	35904	27090	31952	
1996	0	33032	35932	27084	31950	
1997	0	32988	35968	27050	31970	
1998	0	32956	35857	27078	31970	
1999	0	32932	35936	27082	31980	
2000	0	32919	35976	27062	31978	
2001	0	32932	35956	27084	32006	
2002	0	32928	35946	27084	31996	
2003	0	33000	35992	27098	31994	
2004	0	32984	35968	27100	31980	
2005	0	32922	35956	27068	31964	
2006	0	32940	36060	27084	31950	
2007	0	33004	35952	27080	31960	
2008	0	33028	35918	27074	31956	
2009	0	32984	35860	27088	31960	
2010	0	32926	35952	27068	31970	
2011	0	32942	36050	27064	31972	
2012	0	32890	36112	27070	31930	
2013	0	32914	35966	27048	31966	
2014	0	32948	35956	27068	31946	
2015	0	33000	36002	27056	31972	
2016	0	32988	35769	27042	31973	
2017	0	32844	36060	27063	31952	
2018	0	32836	35961	27070	31960	
2019	0	32788	35856	27064	31978	
2020	0	32792	35994	27074	31996	
2021	0	32832	35984	27073	31980	
2022	0	32926	35908	27045	31980	
2023	0	32944	36020	27084	31976	
2024	0	32952	35984	27082	31988	
2025	0	32938	35948	27072	31978	
2026	0	32992	35957	27090	31996	
2027	0	33082	36046	27086	31954	
2028	0	33162	35892	27104	31976	
2029	0	33168	35968	27110	31992	
2030	0	33160	35950	27088	31988	
2031	0	33060	36008	27112	31989	
2032	0	33040	35956	27086	31988	
2033	0	33084	35991	27085	31984	
2034	0	33112	35868	27090	32000	
2035	0	33066	35968	27086	31976	
2036	0	33064	35908	27104	31982	
2037	0	32984	35942	27104	31978	
2038	0	32990	35888	27082	31976	
2039	0	33006	36112	27130	31980	
2040	0	32956	36044	27116	31986	
2041	0	32954	36036	27099	31966	
2042	0	32956	36034	27118	31970	
2043	0	32934	35968	27114	31976	
2044	0	32884	35912	27089	31972	
2045	0	32836	36032	27090	31974	
2046	0	32795	35980	27079	31967	
2047	0	32754	36028	27098	31996	
2048	0	32788	35914	27103	31970	
2049	0	32836	36000	27082	31996	
2050	0	32888	35893	27116	31980	
2051	0	32866	35872	27074	32000	
2052	0	32460	36002	27085	31992	
2053	0	31956	35900	27102	31998	
2054	0	31602	35872	27100	31988	
2055	0	31786	35910	27080	31988	
2056	0	31756	35984	27086	31978	
2057	0	32364	35950	27082	31984	
2058	0	34133	35956	27096	31964	
2059	0	36604	36000	27060	31986	
2060	0	40244	36140	27088	31969	
2061	0	43660	36240	27076	31978	
2062	0	46820	36108	27104	31970	
2063	0	47952	35946	27097	31956	
2064	0	43730	36226	27080	31976	
2065	0	38562	36174	27070	31950	
2066	0	34802	36114	27056	31995	
2067	0	35612	36050	27066	31966	
2068	0	35112	36028	27056	31950	
2069	0	33922	36150	27034	31984	
2070	0	32852	36132	27022	31970	
2071	0	31872	35829	27010	32010	
2072	0	31336	36020	27014	32012	
2073	0	30878	35910	27008	32016	
2074	0	30636	35784	27016	31994	
2075	0	30500	35892	27108	31940	
2076	0	30494	35852	27104	31936	
2077	0	30514	35898	27106	31940	
2078	0	30534	35800	27092	31914	
2079	0	30552	35830	27144	31958	
2080	0	30568	35948	27150	31984	
2081	0	30656	36033	27162	31954	
2082	0	30692	36010	27154	31944	
2083	0	30814	35978	27074	31940	
2084	0	30872	36028	27036	31930	
2085	0	30896	35994	26990	31928	
2086	0	30904	36100	26980	31938	
2087	0	30952	35936	26972	31928	
2088	0	31038	35956	27000	31920	
2089	0	31074	35842	27028	31948	
2090	0	31080	35894	27088	31988	
2091	0	31144	35888	27118	31964	
2092	0	31164	35908	27150	31990	
2093	0	31192	35892	27190	32000	
2094	0	31234	35946	27182	32000	
2095	0	31220	35904	27168	31984	
2096	0	31210	35980	27172	31994	
2097	0	31242	36012	27124	31950	
2098	0	31246	35904	27126	31960	
2099	0	31282	35916	27102	31960	
2100	0	31336	36024	27066	31976	
2101	0	31360	35978	27054	31936	
2102	0	31326	35866	27044	31976	
2103	0	31352	35936	27020	31948	
2104	0	31396	36086	27013	31932	
2105	0	31394	35852	27044	31913	
2106	0	31392	35911	27034	31928	
2107	0	31432	35840	27024	31938	
2108	0	31408	35910	27030	31912	
2109	0	31443	35950	27048	31932	
2110	0	31466	35970	27044	31944	
2111	0	31432	36000	27030	31956	
2112	0	31368	35904	26994	31974	
2113	0	31288	35932	27028	31956	
2114	0	31224	35860	27032	31980	
2115	0	31140	35880	27056	31980	
2116	0	31082	35924	27057	31984	
2117	0	30984	35876	27048	31968	
2118	0	30928	35908	27040	31988	
2119	0	30872	35902	27052	31988	
2120	0	30770	35834	27068	31952	
2121	0	30780	35897	27066	31944	
2122	0	30750	35998	27066	31940	
2123	0	30776	35774	27018	31964	
2124	0	30788	35814	27074	31970	
2125	0	30837	35844	27050	31959	
2126	0	30934	35790	27072	31936	
2127	0	31028	35780	27044	31970	
2128	0	31172	35921	27036	31952	
2129	0	31328	35828	27041	31959	
2130	0	31418	35888	27034	31932	
2131	0	31506	35818	27030	31952	
2132	0	31592	35984	27072	31940	
2133	0	31676	35924	27055	31952	
2134	0	31742	35908	27056	31960	
2135	0	31850	35892	27074	31948	
2136	0	32034	35860	27060	31972	
2137	0	32246	35960	27088	31944	
2138	0	32432	35984	27044	31980	
2139	0	32588	35892	27080	31992	
2140	0	32696	36088	27047	31994	
2141	0	32776	35968	27068	32000	
2142	0	32852	36036	27060	31988	
2143	0	32932	35956	27046	31980	
2144	0	33096	35900	27067	32000	
2145	0	33178	35914	27093	31950	
2146	0	33204	35884	27068	31984	
2147	0	33170	35872	27045	31972	
2148	0	33220	35927	27092	31996	
2149	0	33168	35956	27086	31970	
2150	0	33176	35997	27080	31981	
2151	0	33156	35864	27058	31984	
2152	0	33188	35882	27006	31989	
2153	0	33212	35905	27036	32019	
2154	0	33224	35932	27052	32012	
2155	0	33208	35968	27051	31996	
2156	0	33188	35972	27063	32020	
2157	0	33268	35944	27064	32008	
2158	0	33308	36000	27050	31990	
2159	0	33322	35924	27040	31960	
2160	0	33292	35850	27050	31962	
2161	0	33324	36004	27074	31972	
2162	0	33312	35900	27084	31953	
2163	0	33260	35834	27052	31966	
2164	0	33300	35781	27096	31940	
2165	0	33322	35872	27083	31948	
2166	0	33328	35928	27112	31948	
2167	0	33330	36025	27120	31952	
2168	0	33306	36058	27100	31948	
2169	0	33285	35936	27098	31972	
2170	0	33260	35926	27078	31988	
2171	0	33232	36068	27096	31984	
2172	0	33178	35873	27113	31980	
2173	0	33158	35890	27094	32020	
2174	0	33230	35810	27088	32016	
2175	0	33274	35922	27082	31998	
2176	0	33306	35953	27119	31990	
2177	0	33320	36038	27108	31984	
2178	0	33352	35982	27112	31962	
2179	0	33352	35940	27126	31960	
2180	0	33368	36004	27112	31932	
2181	0	33338	35972	27120	31915	
2182	0	33266	35930	27104	31908	
2183	0	33232	35976	27085	31896	
2184	0	33228	36046	27084	31910	
2185	0	33190	36036	27093	31920	
2186	0	33172	36060	27074	31926	
2187	0	33164	35886	27064	31948	
2188	0	33130	36036	27056	31938	
2189	0	33102	36018	27062	31916	
2190	0	33076	35948	27056	31960	
2191	0	33084	35978	27070	31938	
2192	0	33071	35936	27098	31940	
2193	0	33112	36062	27064	31943	
2194	0	33138	35928	27064	31912	
2195	0	33094	35934	27050	31920	
2196	0	33096	35944	27056	31916	
2197	0	33142	36028	27052	31918	
2198	0	33150	35928	27032	31920	
2199	0	33156	35929	27062	31926	
2200	0	33184	36044	27050	31937	
2201	0	33207	35936	27058	31934	
2202	0	33248	35900	27052	31920	
2203	0	33280	36018	27038	31944	
2204	0	33304	35934	27036	31948	
2205	0	33352	35950	27048	31962	
2206	0	33312	35920	27059	31960	
2207	0	33250	35898	27086	31936	
2208	0	33160	35888	27090	31962	
2209	0	33146	35984	27048	31964	
2210	0	33134	35982	27058	31964	
2211	0	33127	35936	27066	31952	
2212	0	33076	35970	27092	31945	
2213	0	33096	35904	27100	31944	
2214	0	33132	35866	27118	31938	
2215	0	33060	35996	27092	31936	
2216	0	33008	36044	27120	31931	
2217	0	32984	35986	27108	31920	
2218	0	32980	36009	27094	31924	
2219	0	32994	35882	27090	31938	
2220	0	32996	35956	27094	31902	
2221	0	33004	36028	27118	31920	
2222	0	33030	35984	27092	31932	
2223	0	33016	35924	27124	31939	
2224	0	32938	35936	27120	31928	
2225	0	32596	35898	27120	31932	
2226	0	32064	35984	27134	31920	
2227	0	31680	35984	27128	31944	
2228	0	31771	35964	27140	31956	
2229	0	31675	36028	27136	31966	
2230	0	32078	35990	27124	31952	
2231	0	33970	36092	27141	31952	
2232	0	36676	36022	27119	31946	
2233	0	40576	36320	27112	31975	
2234	0	44464	36308	27136	31966	
2235	0	47600	36082	27136	32000	
2236	0	49050	36096	27136	31976	
2237	0	45030	36316	27133	31960	
2238	0	39816	36226	27120	31954	
2239	0	35280	36087	27072	31950	
2240	0	35804	36085	27066	31948	
2241	0	35452	36176	27061	31962	
2242	0	34144	36212	27071	31948	
2243	0	32936	35984	27044	31930	
2244	0	31876	35920	27048	31956	
2245	0	31240	35924	27020	31976	
2246	0	30744	35902	27042	31976	
2247	0	30514	35892	27112	32000	
2248	0	30376	35908	27128	31972	
2249	0	30358	35904	27138	31978	
2250	0	30353	35886	27120	31936	
2251	0	30370	35896	27090	31894	
2252	0	30369	35842	27152	31932	
2253	0	30408	35992	27184	31912	
2254	0	30473	35996	27182	31924	
2255	0	30504	36026	27191	31918	
2256	0	30580	35826	27136	31936	
2257	0	30602	35842	27100	31942	
2258	0	30650	35956	27060	31958	
2259	0	30720	35968	27008	32002	
2260	0	30736	36072	27016	31960	
2261	0	30732	35858	26976	31972	
2262	0	30792	35856	26952	31944	
2263	0	30836	35924	27000	31906	
2264	0	30850	35921	27054	31940	
2265	0	30844	35920	27095	31928	
2266	0	30916	35892	27104	31912	
2267	0	30922	36076	27124	31912	
2268	0	30936	35916	27125	31928	
2269	0	30952	35856	27132	31930	
2270	0	30948	35924	27116	31956	
2271	0	30976	35898	27144	31928	
2272	0	31000	35836	27110	31928	
2273	0	31038	35926	27114	31920	
2274	0	31066	35808	27087	31936	
2275	0	31104	35864	27058	31952	
2276	0	31137	35872	27056	31948	
2277	0	31112	35864	27056	31946	
2278	0	31148	35872	27065	31930	
2279	0	31156	35944	27028	31914	
2280	0	31184	35878	27042	31872	
2281	0	31170	35936	27008	31872	
2282	0	31124	35720	27032	31888	
2283	0	31113	35888	26978	31904	
2284	0	31068	35968	26988	31871	
2285	0	31052	35914	27004	31888	
2286	0	31042	35944	27008	31925	
2287	0	30977	35908	27001	31914	
2288	0	30936	35928	27020	31940	
2289	0	30876	35834	26986	31940	
2290	0	30789	35956	27010	31944	
2291	0	30744	35724	27038	31942	
2292	0	30630	35806	27010	31940	
2293	0	30560	35896	27068	31950	
2294	0	30554	35830	27051	31958	
2295	0	30592	35992	27084	31934	
2296	0	30642	35766	27074	31952	
2297	0	30660	35852	27095	31928	
2298	0	30740	35872	27108	31964	
2299	0	30784	35825	27084	31952	
2300	0	30868	35872	27068	31924	
2301	0	30908	35882	27048	31940	
2302	0	31000	35886	27065	31946	
2303	0	31034	35856	27066	31934	
2304	0	31172	35859	27068	31936	
2305	0	31272	35924	27065	31968	
2306	0	31362	35973	27044	31960	
2307	0	31482	36016	27090	31965	
2308	0	31662	35914	27078	31960	
2309	0	31794	35894	27062	31956	
2310	0	31908	35924	27084	31961	
2311	0	32023	35910	27075	31963	
2312	0	32156	35888	27044	31946	
2313	0	32278	35893	27092	31973	
2314	0	32440	35840	27068	31978	
2315	0	32584	35968	27056	31976	
2316	0	32744	36042	27088	31962	
2317	0	32888	35998	27080	31956	
2318	0	32956	35920	27084	31954	
2319	0	33102	35968	27060	31956	
2320	0	33124	35938	27080	31950	
2321	0	33242	35906	27050	31947	
2322	0	33252	35854	27066	31958	
2323	0	33248	35834	27060	31930	
2324	0	33290	35872	27048	31962	
2325	0	33304	35976	27060	31980	
2326	0	33295	35984	27042	31954	
2327	0	33300	35894	27044	31962	
2328	0	33268	36104	27087	31924	
2329	0	33284	35904	27094	31944	
2330	0	33272	35922	27130	31956	
2331	0	33232	35944	27156	31944	
2332	0	33176	35842	27092	31924	
2333	0	33200	35980	27098	31920	
2334	0	33209	36014	27094	31890	
2335	0	33232	36044	27094	31924	
2336	0	33235	36024	27102	31895	
2337	0	33256	35856	27082	31928	
2338	0	33289	35952	27086	31906	
2339	0	33224	35872	27065	31898	
2340	0	33328	35892	27072	31896	
2341	0	33324	36046	27084	31898	
2342	0	33360	35868	27085	31900	
2343	0	33312	35848	27054	31890	
2344	0	33394	35832	27032	31908	
2345	0	33410	35910	27034	31938	
2346	0	33412	35842	26980	31950	
2347	0	33396	35864	26969	31952	
2348	0	33404	35828	26984	31944	
2349	0	33378	35928	26994	31934	
2350	0	33464	35856	27006	31932	
2351	0	33374	35816	26964	31952	
2352	0	33388	35908	27002	31928	
2353	0	33436	35882	26970	31922	
2354	0	33404	35816	26946	31948	
2355	0	33382	35898	26956	31959	
2356	0	33347	35960	26953	31964	
2357	0	33368	35924	26977	31956	
2358	0	33396	35824	26980	31980	
2359	0	33358	35864	26994	31978	
2360	0	33336	35912	26986	31928	
2361	0	33358	35888	27014	31944	
2362	0	33328	35932	27020	31970	
2363	0	33340	36024	27064	31968	
2364	0	33309	35904	27012	31982	
2365	0	33312	36036	27048	31968	
2366	0	33242	35848	27058	31985	
2367	0	33262	36072	27086	32010	
2368	0	33212	35958	27080	32014	
2369	0	33240	35892	27086	32000	
2370	0	33259	35872	27116	32032	
2371	0	33292	35908	27122	32024	
2372	0	33260	35828	27094	32032	
2373	0	33264	35834	27096	32036	
2374	0	33264	35944	27092	32030	
2375	0	33238	35978	27104	32032	
2376	0	33262	35972	27092	32070	
2377	0	33144	36022	27076	32048	
2378	0	33134	35968	27074	32062	
2379	0	33066	35982	27074	32076	
2380	0	33062	35948	27062	32078	
2381	0	33020	35968	27066	32086	
2382	0	32994	35928	27074	32104	
2383	0	33050	36020	27080	32076	
2384	0	33046	36018	27090	32088	
2385	0	33036	35929	27060	32064	
2386	0	33004	35812	27055	32074	
2387	0	33024	35968	27074	32040	
2388	0	33014	35956	27086	32058	
2389	0	32999	35917	27076	32046	
2390	0	32984	35852	27076	32032	
2391	0	32960	35986	27060	32047	
2392	0	32960	35810	27004	32050	
2393	0	32968	35914	27020	32016	
2394	0	32936	35952	27040	32042	
2395	0	32960	36020	27016	32042	
2396	0	32954	35826	27054	32036	
2397	0	32944	35876	27022	32036	
2398	0	32996	36000	27016	32055	
2399	0	32934	36016	27036	32020	
2400	0	32900	35990	27008	32000	
2401	0	32988	35856	27008	32006	
2402	0	32973	35962	27012	32000	
2403	0	32886	35876	27018	31996	
2404	0	32909	35904	27016	32000	
2405	0	32907	35900	27022	32014	
2406	0	32856	35905	27008	32021	
2407	0	32870	35958	27032	32010	
2408	0	32810	35984	27026	31996	
2409	0	32850	36064	27026	32012	
2410	0	32850	36020	27032	32000	
2411	0	32832	35824	27045	31996	
2412	0	32792	36016	27024	31984	
2413	0	32812	35872	27058	32008	
2414	0	32808	35926	27026	32008	
2415	0	32828	35800	27034	32012	
2416	0	32876	35968	27030	32026	
2417	0	32840	35872	27060	31988	
2418	0	32832	35995	27060	31992	
2419	0	32816	35776	27058	32028	
2420	0	32752	35935	27036	32012	
2421	0	32815	35920	27018	32000	
2422	0	32776	35920	27034	32012	
2423	0	32842	35904	27032	32020	
2424	0	32808	35902	27060	32011	
2425	0	32774	35904	27032	32028	
2426	0	32852	35940	27008	32002	
2427	0	32848	35874	27018	32022	
2428	0	32878	36032	27021	32014	
2429	0	32858	35886	27044	32002	
2430	0	32817	35848	27041	31984	
2431	0	32884	35892	27048	31992	
2432	0	32890	35988	27036	32000	
2433	0	32868	35960	27042	32014	
2434	0	32876	35914	27002	32010	
2435	0	32830	35898	27028	32010	
2436	0	32814	35832	27020	32004	
2437	0	32724	35888	27012	32002	
2438	0	32792	35918	27012	32004	
2439	0	32822	36017	27004	32006	
2440	0	32784	35876	27006	31994	
2441	0	32794	35926	27051	32000	
2442	0	32792	35888	27016	32012	
2443	0	32704	35952	27010	32020	
2444	0	32748	35944	27028	32024	
2445	0	32772	35966	27045	32008	
2446	0	32724	35894	27036	32014	
2447	0	32664	35840	27016	32013	
2448	0	32672	35948	27044	32012	
2449	0	32680	35874	27061	32018	
2450	0	32664	35948	27064	32034	
2451	0	32639	36000	27043	32000	
2452	0	32688	35896	27046	31998	
2453	0	32596	35960	27062	32016	
2454	0	32566	35996	27048	32010	
2455	0	32600	36008	27036	31994	
2456	0	32506	36048	27044	31996	
2457	0	32480	35884	27064	32000	
2458	0	32520	35968	27040	32012	
2459	0	32524	35834	27044	32012	
2460	0	32552	35940	27067	31998	
2461	0	32668	35904	27048	32000	
2462	0	32752	35926	27041	32014	
2463	0	32732	35898	27036	32000	
2464	0	32729	35888	27054	31994	
2465	0	32756	36070	27046	31994	
2466	0	32740	35944	27046	31990	
2467	0	32712	35928	27038	32023	
2468	0	32696	35936	27030	31988	
2469	0	32624	35944	27063	32000	
2470	0	32658	35832	27064	32016	
2471	0	32678	36008	27072	32032	
2472	0	32712	35846	27064	31988	
2473	0	32708	35856	27076	32008	
2474	0	32720	35832	27072	31998	
2475	0	32764	35898	27064	31991	
2476	0	32724	35856	27062	31988	
2477	0	32718	35930	27030	32006	
2478	0	32704	35840	27030	32008	
2479	0	32676	35818	27052	31976	
2480	0	32368	35964	27076	31991	
2481	0	31814	35884	27083	31972	
2482	0	31426	35860	27043	31984	
2483	0	31465	35843	27044	31980	
2484	0	31300	35850	27050	31986	
2485	0	31976	35888	27084	31992	
2486	0	34222	35932	27056	31979	
2487	0	37430	35840	27068	31986	
2488	0	41518	36130	27046	31999	
2489	0	44808	36296	27070	31988	
2490	0	47552	36098	27050	31992	
2491	0	48716	35864	27032	32012	
2492	0	44644	36101	27010	32001	
2493	0	39297	36012	27021	31994	
2494	0	35188	35876	27001	31980	
2495	0	35772	35996	26988	32004	
2496	0	35056	36010	27006	31992	
2497	0	33704	35988	27034	31988	
2498	0	32500	35882	27010	31994	
2499	0	31552	35738	26990	32006	
2500	0	30970	35764	26988	32036	
2501	0	30504	35844	27044	32036	
2502	0	30278	35842	27090	32010	
2503	0	30186	35920	27093	32008	
2504	0	30164	35820	27088	31972	
2505	0	30190	35820	27092	31936	
2506	0	30210	35972	27050	31968	
2507	0	30270	36061	27081	31960	
2508	0	30308	36012	27088	31968	
2509	0	30388	35939	27076	31957	
2510	0	30414	35918	27057	31988	
2511	0	30432	35818	26972	32000	
2512	0	30432	35912	26964	32040	
2513	0	30444	35876	26936	32052	
2514	0	30436	36060	26950	32068	
2515	0	30492	35856	26952	32078	
2516	0	30548	35917	26958	32040	
2517	0	30640	35898	26956	32032	
2518	0	30650	35956	27040	32004	
2519	0	30708	36024	27034	31984	
2520	0	30704	35936	27032	31988	
2521	0	30672	36010	27008	31964	
2522	0	30684	36074	26994	32000	
2523	0	30760	36068	26997	31998	
2524	0	30868	35968	27005	31984	
2525	0	30880	35956	27010	32000	
2526	0	30936	35902	27000	31992	
2527	0	30934	35968	26976	32022	
2528	0	30988	36046	26950	32024	
2529	0	31022	35924	26946	32012	
2530	0	31084	35898	26960	32032	
2531	0	31074	35900	26960	32006	
2532	0	31015	35944	26951	31984	
2533	0	31033	35914	26964	31972	
2534	0	31047	35912	26956	31956	
2535	0	31022	35702	26952	31988	
2536	0	31012	35892	26930	31980	
2537	0	31023	35904	26942	31986	
2538	0	31018	35848	26954	31952	
2539	0	31020	36008	26948	31980	
2540	0	30992	35802	26942	31964	
2541	0	30964	35852	26940	31976	
2542	0	30932	35800	26950	31968	
2543	0	30932	35978	26964	31984	
2544	0	30932	35886	26940	32018	
2545	0	30912	35890	26958	32016	
2546	0	30852	35874	26965	31998	
2547	0	30793	35772	26976	31996	
2548	0	30704	35892	26984	31996	
2549	0	30680	35780	27006	32008	
2550	0	30660	35880	27008	32020	
2551	0	30596	35812	26998	32021	
2552	0	30616	35794	27008	32037	
2553	0	30703	35968	26996	32063	
2554	0	30746	35924	27008	32032	
2555	0	30722	35854	27028	32018	
2556	0	30640	35844	27012	32024	
2557	0	30692	35737	27020	32036	
2558	0	30958	35828	27032	32020	
2559	0	31322	35900	27020	32012	
2560	0	31380	35944	27053	32032	
2561	0	31502	35848	27054	32022	
2562	0	31556	35950	27048	32014	
2563	0	31584	35844	27052	32044	
2564	0	31568	35868	27034	32032	
2565	0	31637	35916	27034	32028	
2566	0	31648	35920	27044	32033	
2567	0	31750	35756	27086	32036	
2568	0	31820	35968	27056	32048	
2569	0	31956	35947	27056	32016	
2570	0	32129	35930	27058	32044	
2571	0	32220	35901	27030	32046	
2572	0	32324	35876	27066	32024	
2573	0	32378	35972	27049	32032	
2574	0	32584	35962	27054	32042	
2575	0	32652	36028	27044	32032	
2576	0	32720	35958	27066	32026	
2577	0	32846	35930	27048	32037	
2578	0	32976	35844	27034	32020	
2579	0	33090	35984	27034	32042	
2580	0	33098	36020	27040	32024	
2581	0	33160	36040	27054	32048	
2582	0	33096	36050	27068	32024	
2583	0	33188	35910	27066	32030	
2584	0	33280	35894	27048	32050	
2585	0	33321	36002	27000	32016	
2586	0	33376	35944	27004	31978	
2587	0	33340	35998	27034	31966	
2588	0	33228	35855	27024	31986	
2589	0	33286	35937	27040	32008	
2590	0	33272	35780	27046	32012	
2591	0	33296	36008	27060	32010	
2592	0	33294	35916	27062	32020	
2593	0	33248	35912	27071	31989	
2594	0	33272	35940	27079	31962	
2595	0	33294	35908	27084	31966	
2596	0	33336	35984	27074	31950	
2597	0	33332	36016	27050	31968	
2598	0	33318	35928	27062	31970	
2599	0	33358	36000	27049	31965	
2600	0	33346	35868	27060	31957	
2601	0	33346	35944	27036	31976	
2602	0	33342	35884	27068	31984	
2603	0	33312	35792	27049	31981	
2604	0	33311	35878	27072	31968	
2605	0	33305	35882	27058	32006	
2606	0	33286	35772	27054	31980	
2607	0	33344	35772	27062	31982	
2608	0	33330	35828	27057	31992	
2609	0	33412	35971	27032	31992	
2610	0	33380	35990	27040	31954	
2611	0	33380	35956	27042	31950	
2612	0	33384	35940	27073	31968	
2613	0	33412	35812	27018	31990	
2614	0	33428	35938	27032	31948	
2615	0	33362	35948	27041	31924	
2616	0	33404	35890	27000	31936	
2617	0	33440	35818	27010	31930	
2618	0	33414	35844	27018	31950	
2619	0	33423	35835	27020	31948	
2620	0	33416	35884	27012	31939	
2621	0	33482	35930	26996	31928	
2622	0	33472	35850	26982	31946	
2623	0	33465	35766	27016	31975	
2624	0	33474	35852	27012	31966	
2625	0	33448	35864	27024	31950	
2626	0	33452	35924	27008	31952	
2627	0	33472	35968	27018	31962	
2628	0	33448	35840	27020	31986	
2629	0	33408	35888	27014	31944	
2630	0	33320	35895	27040	31938	
2631	0	33350	35872	27003	31948	
2632	0	33421	35760	27018	31944	
2633	0	33416	35828	26996	31962	
2634	0	33408	35928	27014	31960	
2635	0	33312	35804	27004	31954	
2636	0	33295	35956	27002	31968	
2637	0	33316	35882	27040	31970	
2638	0	33378	35880	27042	31941	
2639	0	33354	35924	27044	31948	
2640	0	33248	35792	27016	31946	
2641	0	33198	35864	27012	31976	
2642	0	33188	36016	27040	31956	
2643	0	33176	35846	27004	31972	
2644	0	33248	35820	27040	31967	
2645	0	33332	35893	27040	32008	
2646	0	33300	35854	27024	31968	
2647	0	33249	35894	27014	31974	
2648	0	33372	35944	27036	31990	
2649	0	33396	35968	27024	31992	
2650	0	33328	35823	26980	31984	
2651	0	33276	35920	27018	31988	
2652	0	33124	35996	27008	31974	
2653	0	33123	35868	27024	31990	
2654	0	33184	36033	27000	31991	
2655	0	33154	35790	27012	31998	
2656	0	33120	35748	27025	31972	
2657	0	33120	35906	27016	32008	
2658	0	33126	35858	27002	31988	
2659	0	33128	35908	27000	31993	
2660	0	33180	35846	27014	32010	
2661	0	33250	35980	27003	32004	
2662	0	33241	35800	27052	31990	
2663	0	33216	35868	27024	31983	
2664	0	33160	35956	27032	31978	
2665	0	33160	35890	27014	31988	
2666	0	33107	35904	27030	32010	
2667	0	33124	35986	27012	31972	
2668	0	33120	35960	27040	31992	
2669	0	33056	35910	27036	31982	
2670	0	33068	35780	27024	31988	
2671	0	33125	35765	27038	31976	
2672	0	33068	35780	27010	32001	
2673	0	32994	35922	27020	32010	
2674	0	33044	35808	27034	31988	
2675	0	33040	35840	27012	31994	
2676	0	33032	35884	27020	32004	
2677	0	32986	35916	27049	31962	
2678	0	32950	35972	27032	31968	
2679	0	33008	35932	27039	31970	
2680	0	33208	35870	27028	31984	
2681	0	33286	35970	27012	31976	
2682	0	33336	35950	27046	31944	
2683	0	33352	35980	27032	31972	
2684	0	33292	35868	27046	31972	
2685	0	33227	35880	27028	31952	
2686	0	33200	35852	27040	31984	
2687	0	33122	35924	27026	31972	
2688	0	33056	35992	27045	31958	
2689	0	33044	35878	27026	31986	
2690	0	33080	35946	27030	31938	
2691	0	33044	35880	27045	31950	
2692	0	33004	35864	27024	31966	
2693	0	33102	35860	27054	31958	
2694	0	33116	36022	27040	31950	
2695	0	33088	35852	27068	31952	
2696	0	33090	35818	27046	31954	
2697	0	33132	35892	27034	31946	
2698	0	33128	35856	27048	31950	
2699	0	32948	35906	27068	31968	
2700	0	32398	35872	27046	31980	
2701	0	32008	35930	27066	31966	
2702	0	31868	35896	27068	31979	
2703	0	32092	35854	27046	32014	
2704	0	32440	35948	27068	31970	
2705	0	33876	35940	27092	31950	
2706	0	36014	35908	27071	31964	
2707	0	38788	35946	27083	31968	
2708	0	42104	36180	27078	31980	
2709	0	45488	36116	27074	31984	
2710	0	48214	36042	27102	31963	
2711	0	46518	36156	27086	31988	
2712	0	40718	36210	27068	31984	
2713	0	35294	35940	27072	31982	
2714	0	35008	36004	27070	31984	
2715	0	35546	36036	27040	31988	
2716	0	34648	36062	27028	31968	
2717	0	33730	36104	27042	31967	
2718	0	32872	36108	27017	31946	
2719	0	32260	35726	27028	31956	
2720	0	31760	35754	27007	31970	
2721	0	31358	35880	27008	32000	
2722	0	31056	35784	26999	31990	
2723	0	30948	35794	26984	31968	
2724	0	30922	35860	26962	31976	
2725	0	30978	35670	26988	31970	
2726	0	31104	35664	27072	32009	
2727	0	31224	35713	27092	32018	
2728	0	31232	35858	27124	32036	
2729	0	31140	35852	27176	32038	
2730	0	31118	35960	27200	32006	
2731	0	31134	36041	27170	31964	
2732	0	31176	36004	27120	31940	
2733	0	31364	36018	27082	31886	
2734	0	31464	35918	27088	31884	
2735	0	31348	35976	27053	31896	
2736	0	31288	35932	27029	31934	
2737	0	31326	35974	27033	31972	
2738	0	31464	35842	27036	32020	
2739	0	31464	35985	27025	32028	
2740	0	31668	36056	27008	32032	
2741	0	31744	35988	27027	32033	
2742	0	31732	35978	27056	32044	
2743	0	31678	35956	27014	32009	
2744	0	31580	35980	26992	32010	
2745	0	31682	35845	26998	31984	
2746	0	31736	35808	26976	31956	
2747	0	31710	35916	26964	31938	
2748	0	31756	35860	26946	31944	
2749	0	31772	35900	26970	31940	
2750	0	31970	35974	26972	31937	
2751	0	31964	35938	26976	31950	
2752	0	31928	35828	26976	31944	
2753	0	31912	35886	26988	31968	
2754	0	31952	35946	26992	31956	
2755	0	31998	35854	27002	31962	
2756	0	31936	35888	27028	31950	
2757	0	31844	35790	27018	31968	
2758	0	31927	35722	27028	31970	
2759	0	32020	35876	27048	31952	
2760	0	31992	35848	27036	31970	
2761	0	32032	35800	27038	31978	
2762	0	31908	35844	27045	31968	
2763	0	31828	35952	27062	31990	
2764	0	31960	35840	27060	31992	
2765	0	31938	35836	27041	31992	
2766	0	31736	35770	27042	31972	
2767	0	31720	35880	27054	32000	
2768	0	31788	35804	27076	32004	
2769	0	31749	35930	27072	31984	
2770	0	31616	35844	27090	32012	
2771	0	31624	35864	27104	32001	
2772	0	31558	35850	27092	31968	
2773	0	31744	35804	27088	31970	
2774	0	31790	35970	27073	31994	
2775	0	31824	36024	27080	32010	
2776	0	31828	35952	27114	31988	
2777	0	32005	36016	27084	32000	
2778	0	32132	35864	27080	31988	
2779	0	32040	35976	27090	31958	
2780	0	32076	35958	27076	31972	
2781	0	32178	36010	27062	31966	
2782	0	32360	35968	27061	31993	
2783	0	32490	35952	27075	31972	
2784	0	32644	36032	27080	31950	
2785	0	32752	35968	27078	31948	
2786	0	32908	35987	27046	31948	
2787	0	32892	35992	27060	31952	
2788	0	32848	36168	27098	31959	
2789	0	32952	35956	27042	31952	
2790	0	32986	35986	27025	31958	
2791	0	33128	35962	27068	31970	
2792	0	33320	35946	27058	31984	
2793	0	33256	35860	27062	31988	
2794	0	33114	35980	27070	31980	
2795	0	33092	35914	27088	31970	
2796	0	33082	35978	27048	31982	
2797	0	33112	36004	27056	31989	
2798	0	33200	35932	27084	31982	
2799	0	33374	36070	27092	31944	
2800	0	33312	36064	27080	31942	
2801	0	33280	35878	27086	31962	
2802	0	33336	35964	27060	31968	
2803	0	33374	35896	27070	31976	
2804	0	33356	35890	27074	31960	
2805	0	33358	35950	27112	31976	
2806	0	33240	35836	27088	31982	
2807	0	33142	35864	27132	31965	
2808	0	33314	36068	27102	31958	
2809	0	33332	35848	27120	31982	
2810	0	33220	35840	27119	31986	
2811	0	33342	35808	27104	31994	
2812	0	33482	35904	27112	31992	
2813	0	33524	36033	27100	31986	
2814	0	33425	36012	27080	31948	
2815	0	33288	36010	27072	31988	
2816	0	33228	35988	27118	31968	
2817	0	33274	36112	27107	31956	
2818	0	33420	36008	27112	31976	
2819	0	33496	35848	27128	31968	
2820	0	33556	36076	27130	31992	
2821	0	33522	35860	27124	31999	
2822	0	33389	35856	27148	31972	
2823	0	33394	35940	27124	31976	
2824	0	33540	35964	27120	31982	
2825	0	33488	35940	27080	31998	
2826	0	33384	36026	27076	31978	
2827	0	33480	35928	27090	31970	
2828	0	33640	35938	27075	31984	
2829	0	33466	35832	27052	31976	
2830	0	33392	35897	27084	31967	
2831	0	33236	35852	27090	31986	
2832	0	33336	35908	27079	31976	
2833	0	33514	35946	27078	31996	
2834	0	33556	36000	27104	31976	
2835	0	33468	35940	27109	31966	
2836	0	33369	35996	27098	31960	
2837	0	33328	35916	27126	31932	
2838	0	33420	35960	27138	31968	
2839	0	33448	35970	27132	31948	
2840	0	33460	35984	27130	31939	
2841	0	33342	35912	27102	31968	
2842	0	33328	35958	27122	31976	
2843	0	33312	35818	27127	31965	
2844	0	33258	35936	27116	31954	
2845	0	33206	35896	27124	31960	
2846	0	33314	35962	27084	31956	
2847	0	33335	35824	27086	31978	
2848	0	33280	35840	27094	31996	
2849	0	33004	35830	27086	31973	
2850	0	32970	35918	27108	31950	
2851	0	33222	35960	27108	31971	
2852	0	33364	35930	27090	31970	
2853	0	33352	35908	27098	31976	
2854	0	33132	35946	27077	31952	
2855	0	33119	35938	27072	31992	
2856	0	33274	35842	27082	31976	
2857	0	33216	35940	27088	31960	
2858	0	33156	35940	27086	31955	
2859	0	33164	36036	27068	31952	
2860	0	32998	35887	27076	31950	
2861	0	32872	35802	27064	31964	
2862	0	32932	35924	27076	31972	
2863	0	33074	35812	27054	31978	
2864	0	32982	35788	27056	31954	
2865	0	33036	35868	27057	31920	
2866	0	33096	35928	27056	31952	
2867	0	33194	35898	27046	31938	
2868	0	33084	35908	27032	31948	
2869	0	33216	35876	27008	31968	
2870	0	33236	35824	26981	31970	
2871	0	33062	35922	27008	31986	
2872	0	33044	35842	27032	31964	
2873	0	32850	35919	27050	31976	
2874	0	33000	35826	27034	31962	
2875	0	33158	35800	27052	31960	
2876	0	33252	35888	27062	31972	
2877	0	33194	36042	27064	31956	
2878	0	33280	35936	27080	31968	
2879	0	33404	36008	27066	31992	
2880	0	33348	35974	27108	31972	
2881	0	33176	36032	27102	31970	
2882	0	33136	36020	27108	31951	
2883	0	33068	35972	27114	31944	
2884	0	33276	36087	27108	31922	
2885	0	33218	36020	27116	31934	
2886	0	33002	36162	27103	31948	
2887	0	32948	36180	27122	31936	
2888	0	33014	36136	27118	31932	
2889	0	33148	36172	27136	31962	
2890	0	33066	36152	27158	31960	
2891	0	32748	36184	27170	31952	
2892	0	32864	36042	27196	31964	
2893	0	32948	36048	27176	31956	
2894	0	32416	35928	27188	31960	
2895	0	31890	36082	27168	31989	
2896	0	31744	36008	27160	31992	
2897	0	32016	36104	27158	31954	
2898	0	32064	36188	27176	31943	
2899	0	33050	36140	27162	31964	
2900	0	35006	36124	27158	31952	
2901	0	37460	36204	27136	31980	
2902	0	41280	36312	27148	31982	
2903	0	44876	36398	27184	31976	
2904	0	48488	36224	27168	31996	
2905	0	49633	36242	27179	31977	
2906	0	44266	36500	27170	31970	
2907	0	37048	36210	27160	31974	
2908	0	33872	36114	27164	31976	
2909	0	35194	36257	27160	31946	
2910	0	34758	36308	27164	31944	
2911	0	33668	36238	27138	31958	
2912	0	32834	36250	27140	31940	
2913	0	32142	36136	27136	31970	
2914	0	31502	35930	27120	32000	
2915	0	31074	35928	27160	32030	
2916	0	30774	35960	27172	31994	
2917	0	30568	36176	27170	31996	
2918	0	30472	36058	27184	31978	
2919	0	30370	35978	27251	31954	
2920	0	30434	35984	27287	32008	
2921	0	30464	35948	27264	32000	
2922	0	30456	35948	27268	32012	
2923	0	30562	36042	27336	31968	
2924	0	30604	36033	27306	31930	
2925	0	30588	35884	27302	31880	
2926	0	30548	36154	27264	31864	
2927	0	30676	36101	27232	31874	
2928	0	30650	36184	27202	31898	
2929	0	30760	36054	27150	31916	
2930	0	30804	36024	27138	31970	
2931	0	30832	36146	27166	32028	
2932	0	30834	36186	27129	32040	
2933	0	30876	36158	27144	32040	
2934	0	30786	36200	27116	32036	
2935	0	30924	36142	27136	32054	
2936	0	31010	36086	27124	32060	
2937	0	31098	36224	27121	32026	
2938	0	31145	36092	27104	32024	
2939	0	31114	36000	27112	31954	
2940	0	31040	36076	27086	31950	
2941	0	30952	36052	27068	31916	
2942	0	30916	36080	27048	31896	
2943	0	31034	36024	27068	31892	
2944	0	31172	36112	27076	31920	
2945	0	31226	36116	27108	31920	
2946	0	31228	36098	27108	31934	
2947	0	31168	36002	27112	31924	
2948	0	31146	35992	27128	31936	
2949	0	31165	36044	27100	31920	
2950	0	31236	36002	27120	31988	
2951	0	31260	36120	27117	31960	
2952	0	31232	36044	27118	31985	
2953	0	31148	35988	27118	31964	
2954	0	31068	36028	27146	32002	
2955	0	31096	35896	27128	31996	
2956	0	31052	36073	27132	32005	
2957	0	31013	35928	27136	32012	
2958	0	30934	35974	27140	31998	
2959	0	30928	35994	27146	32010	
2960	0	30912	35962	27159	32011	
2961	0	30824	35968	27165	32007	
2962	0	30710	35970	27162	32012	
2963	0	30606	35978	27154	32008	
2964	0	30610	36106	27160	32022	
2965	0	30441	35952	27126	32004	
2966	0	30538	36020	27140	31994	
2967	0	30558	36076	27142	32006	
2968	0	30514	36136	27147	31988	
2969	0	30502	36038	27117	31984	
2970	0	30564	36065	27108	31975	
2971	0	30606	36000	27106	31973	
2972	0	30698	36096	27090	31976	
2973	0	30724	36024	27086	31972	
2974	0	30856	36100	27096	31932	
2975	0	31046	35988	27074	31960	
2976	0	31142	35968	27074	31973	
2977	0	31252	36046	27078	31953	
2978	0	31350	36128	27068	31964	
2979	0	31492	36064	27080	31976	
2980	0	31644	35936	27100	31968	
2981	0	31716	36042	27076	31968	
2982	0	31748	36020	27124	31978	
2983	0	31797	36074	27106	31972	
2984	0	31896	36114	27086	31966	
2985	0	31968	36040	27104	31966	
2986	0	31980	36098	27112	31964	
2987	0	32020	35896	27098	31980	
2988	0	32122	36036	27118	31982	
2989	0	32220	35994	27112	32000	
2990	0	32220	35908	27104	31972	
2991	0	32216	36006	27146	31994	
2992	0	32336	36056	27094	31996	
2993	0	32332	36004	27121	31966	
2994	0	32333	36012	27144	31944	
2995	0	32354	36128	27144	31958	
2996	0	32276	36078	27134	31934	
2997	0	32252	36110	27104	31966	
2998	0	32274	35856	27090	31978	
2999	0	32340	35950	27122	31954	
3000	0	32284	36014	27128	31940	
3001	0	32264	36106	27117	31970	
3002	0	32200	36042	27125	31968	
3003	0	32200	35926	27124	31944	
3004	0	32274	36084	27144	31988	
3005	0	32264	36016	27141	31956	
3006	0	32324	35876	27140	31971	
3007	0	32310	36002	27119	31976	
3008	0	32416	35912	27120	31996	
3009	0	32377	35900	27126	31960	
3010	0	32420	35984	27116	31944	
3011	0	32458	36046	27077	31938	
3012	0	32456	35986	27110	31946	
3013	0	32440	36024	27130	31956	
3014	0	32452	35918	27134	31938	
3015	0	32452	35920	27124	31976	
3016	0	32478	36136	27140	32004	
3017	0	32545	36052	27124	31964	
3018	0	32600	36025	27122	31952	
3019	0	32612	35946	27106	31952	
3020	0	32596	35888	27090	31960	
3021	0	32606	36056	27098	31960	
3022	0	32588	36036	27108	31968	
3023	0	32650	36036	27125	31973	
3024	0	32628	36014	27084	31988	
3025	0	32640	35874	27095	31990	
3026	0	32694	36033	27090	31973	
3027	0	32636	36186	27094	31974	
3028	0	32608	35979	27087	31982	
3029	0	32597	35964	27090	32020	
3030	0	32630	36121	27071	32004	
3031	0	32700	36064	27118	31984	
3032	0	32688	36080	27064	31976	
3033	0	32752	36000	27104	32002	
3034	0	32802	35904	27108	32001	
3035	0	32844	36072	27072	32000	
3036	0	32816	36026	27088	31994	
3037	0	32824	35982	27076	31986	
3038	0	32780	36006	27100	32014	
3039	0	32760	35894	27087	31976	
3040	0	32752	35974	27092	31982	
3041	0	32734	36062	27099	31980	
3042	0	32658	35964	27096	32005	
3043	0	32666	35996	27078	32024	
3044	0	32664	36080	27120	31998	
3045	0	32658	35988	27092	32004	
3046	0	32682	36068	27094	32014	
3047	0	32605	35964	27071	32026	
3048	0	32625	36036	27085	32032	
3049	0	32634	36082	27074	32042	
3050	0	32684	36082	27063	32018	
3051	0	32808	36006	27092	32018	
3052	0	32848	36020	27070	32048	
3053	0	32874	35960	27092	32028	
3054	0	32942	35968	27086	31996	
3055	0	32947	36076	27072	32046	
3056	0	32950	35898	27076	32030	
3057	0	32932	35936	27080	32042	
3058	0	32868	36018	27084	32064	
3059	0	32908	36016	27078	32050	
3060	0	32980	35984	27081	32044	
3061	0	32986	36058	27068	32048	
3062	0	32992	36064	27090	32044	
3063	0	33008	35997	27044	32058	
3064	0	32980	36114	27056	32058	
3065	0	32956	36170	27086	32048	
3066	0	32916	36106	27080	32020	
3067	0	32868	36078	27088	32048	
3068	0	32840	36000	27062	32034	
3069	0	32896	35996	27087	32054	
3070	0	32924	35986	27094	32036	
3071	0	32912	35922	27101	32056	
3072	0	32748	35954	27080	32024	
3073	0	32750	35882	27092	32032	
3074	0	32744	36064	27106	32026	
3075	0	32812	36080	27102	32040	
3076	0	32785	36002	27088	32021	
3077	0	32626	36056	27088	32034	
3078	0	32212	35964	27112	32034	
3079	0	31936	36096	27090	32024	
3080	0	31690	35976	27130	32036	
3081	0	31704	36046	27144	32032	
3082	0	31472	36012	27124	32038	
3083	0	31980	36308	27118	32032	
3084	0	34416	36216	27114	32016	
3085	0	37950	36280	27112	32016	
3086	0	42416	36364	27106	32030	
3087	0	45888	36264	27120	32028	
3088	0	48872	36228	27092	32026	
3089	0	49216	36150	27089	32026	
3090	0	44484	36170	27094	32036	
3091	0	39400	36117	27089	32034	
3092	0	36328	36049	27056	32060	
3093	0	36694	36138	27094	32056	
3094	0	35354	36072	27052	32050	
3095	0	33812	36058	27048	32040	
3096	0	32670	36036	27046	32052	
3097	0	31716	35872	27072	32070	
3098	0	31098	36036	27068	32072	
3099	0	30676	35964	27100	32070	
3100	0	30396	36078	27165	32074	
3101	0	30382	35992	27186	32056	
3102	0	30292	35936	27208	32000	
3103	0	30252	36044	27204	32020	
3104	0	30218	35970	27192	32012	
3105	0	30240	36024	27220	32004	
3106	0	30381	36024	27208	31970	
3107	0	30556	36040	27176	31904	
3108	0	30604	35982	27132	31894	
3109	0	30664	35928	27098	31880	
3110	0	30642	35996	27078	31888	
3111	0	30662	35936	27050	31912	
3112	0	30768	36080	27052	31908	
3113	0	30872	36076	27077	31938	
3114	0	30978	35966	27089	31894	
3115	0	31013	35968	27104	31936	
3116	0	30996	36010	27129	31966	
3117	0	30974	36136	27164	31996	
3118	0	31002	36112	27170	32014	
3119	0	31104	36052	27176	32032	
3120	0	31132	35992	27182	32058	
3121	0	31204	35884	27198	32018	
3122	0	31156	35960	27174	32005	
3123	0	31207	36032	27127	31978	
3124	0	31182	35976	27144	31992	
3125	0	31184	35918	27120	32004	
3126	0	31158	35974	27096	31972	
3127	0	31232	35896	27088	31976	
3128	0	31276	35973	27064	31972	
3129	0	31282	35906	27030	31950	
3130	0	31274	35984	27035	31961	
3131	0	31294	35898	27012	31970	
3132	0	31360	36032	27001	31964	
3133	0	31250	35900	26992	31973	
3134	0	31200	35876	26969	32000	
3135	0	31200	35824	26996	32000	
3136	0	31132	36000	26988	32002	
3137	0	31114	35914	26984	32020	
3138	0	31080	35822	27012	32000	
3139	0	31086	35920	27010	32026	
3140	0	31040	35784	27040	32012	
3141	0	31020	35916	27032	32024	
3142	0	30902	35912	27086	32004	
3143	0	30764	35884	27090	31996	
3144	0	30700	35968	27080	32018	
3145	0	30622	35788	27098	32005	
3146	0	30504	35920	27086	32018	
3147	0	30454	35862	27084	32000	
3148	0	30452	35892	27116	32022	
3149	0	30332	36010	27136	32004	
3150	0	30328	35712	27148	32024	
3151	0	30330	35846	27098	32032	
3152	0	30332	35844	27124	32032	
3153	0	30401	35796	27112	32036	
3154	0	30496	35754	27140	32024	
3155	0	30554	35917	27138	32044	
3156	0	30656	35956	27136	32012	
3157	0	30740	35856	27144	32028	
3158	0	30822	35920	27112	31994	
3159	0	31002	35816	27118	32004	
3160	0	31108	35920	27096	32010	
3161	0	31294	35954	27108	32018	
3162	0	31577	35844	27100	32004	
3163	0	31804	35886	27100	31998	
3164	0	31972	35868	27100	32020	
3165	0	32042	35988	27097	32032	
3166	0	32136	36027	27110	32016	
3167	0	32330	36084	27090	32004	
3168	0	32509	35984	27088	31994	
3169	0	32701	36162	27076	31976	
3170	0	32868	36018	27075	31968	
3171	0	32989	36041	27060	31989	
3172	0	33114	35970	27082	31984	
3173	0	33224	36006	27099	32004	
3174	0	33234	35840	27070	31976	
3175	0	33272	35960	27052	31996	
3176	0	33290	35934	27084	31947	
3177	0	33280	35809	27070	31982	
3178	0	33362	35942	27050	32004	
3179	0	33386	35928	27046	31976	
3180	0	33328	36056	27072	32002	
3181	0	33400	36040	27080	32008	
3182	0	33412	35998	27112	31994	
3183	0	33366	36088	27132	31978	
3184	0	33394	36024	27120	31978	
3185	0	33388	36032	27146	31992	
3186	0	33418	36042	27136	32002	
3187	0	33428	36008	27116	31996	
3188	0	33406	36026	27122	32004	
3189	0	33362	36049	27128	31996	
3190	0	33294	35969	27099	31970	
3191	0	33312	35874	27136	31984	
3192	0	33296	36044	27126	31970	
3193	0	33320	35905	27110	32000	
3194	0	33362	35936	27090	32008	
3195	0	33328	36052	27074	31984	
3196	0	33288	35849	27066	32008	
3197	0	33269	35832	27088	31980	
3198	0	33290	35868	27102	31944	
3199	0	33374	35860	27106	31984	
3200	0	33408	36000	27112	31984	
3201	0	33354	36080	27092	32005	
3202	0	33268	35904	27094	32012	
3203	0	33268	36128	27084	31988	
3204	0	33306	36110	27098	32002	
3205	0	33258	35938	27086	31992	
3206	0	33252	35956	27090	31972	
3207	0	33234	36000	27114	31986	
3208	0	33218	35930	27096	31992	
3209	0	33202	36016	27086	31984	
3210	0	33178	35888	27098	32004	
3211	0	33224	35930	27090	32006	
3212	0	33194	35972	27102	31976	
3213	0	33172	35900	27089	32002	
3214	0	33104	36049	27114	31964	
3215	0	33085	36028	27090	32000	
3216	0	33022	35900	27072	32000	
3217	0	33012	35918	27064	32011	
3218	0	33028	36062	27030	31999	
3219	0	32972	36044	27069	31988	
3220	0	32941	36012	27081	31988	
3221	0	32990	36004	27072	31992	
3222	0	33012	35928	27064	32010	
3223	0	33016	35956	27072	31994	
3224	0	33092	35968	27060	32000	
3225	0	33080	35900	27062	31994	
3226	0	33142	35968	27072	32000	
3227	0	33224	35898	27090	31958	
3228	0	33200	36035	27068	31988	
3229	0	33166	35828	27056	31992	
3230	0	33140	36031	27051	31978	
3231	0	33214	35936	27077	31964	
3232	0	33226	35960	27080	31993	
3233	0	33212	35853	27056	31992	
3234	0	33192	36058	27072	31984	
3235	0	33108	35944	27076	31976	
3236	0	33136	35920	27068	31956	
3237	0	33144	36000	27052	31957	
3238	0	33110	36106	27068	31944	
3239	0	33112	35952	27068	31951	
3240	0	33102	35944	27060	31952	
3241	0	33064	36001	27044	31968	
3242	0	33004	36040	27088	31944	
3243	0	32944	36130	27080	31958	
3244	0	32856	35976	27072	31988	
3245	0	32828	35900	27084	31966	
3246	0	32808	35978	27094	31990	
3247	0	32824	36004	27082	31968	
3248	0	32774	35862	27068	31996	
3249	0	32686	35832	27052	31966	
3250	0	32282	36024	27072	31964	
3251	0	31794	35960	27072	31976	
3252	0	31414	35936	27056	31972	
3253	0	31470	35968	27090	32000	
3254	0	31240	35886	27088	31968	
3255	0	31834	35850	27087	31956	
3256	0	33898	35856	27060	31978	
3257	0	36851	35988	27096	31960	
3258	0	41020	36218	27094	31968	
3259	0	44736	36184	27087	31968	
3260	0	47838	35950	27062	31977	
3261	0	48600	36124	27088	31964	
3262	0	43914	36224	27058	31996	
3263	0	38786	36008	27080	32002	
3264	0	35190	35872	27050	32008	
3265	0	36074	35944	27024	32008	
3266	0	35072	35956	27036	31972	
3267	0	33748	35982	27048	32000	
3268	0	32532	35930	27049	32012	
3269	0	31506	35784	27054	32012	
3270	0	30826	35802	27024	32062	
3271	0	30402	35862	27029	32006	
3272	0	30192	35692	27079	31988	
3273	0	30064	35860	27128	31976	
3274	0	30016	35834	27156	31955	
3275	0	29994	35790	27150	31936	
3276	0	30020	35858	27159	31952	
3277	0	30088	35886	27104	31966	
3278	0	30136	35726	27105	31994	
3279	0	30194	35872	27148	32034	
3280	0	30246	35820	27129	32002	
3281	0	30364	35688	27136	32004	
3282	0	30416	35740	27068	31976	
3283	0	30476	36060	27024	31971	
3284	0	30562	35952	27004	31956	
3285	0	30624	35938	27012	31976	
3286	0	30683	36008	26990	31982	
3287	0	30783	35844	26980	31968	
3288	0	30800	35660	26998	31978	
3289	0	30826	35940	27024	32000	
3290	0	30824	35804	27074	32000	
3291	0	30809	35874	27104	32016	
3292	0	30858	35892	27115	32024	
3293	0	30920	35888	27116	31982	
3294	0	30964	35850	27106	32018	
3295	0	30994	35926	27100	32002	
3296	0	31017	35952	27086	32024	
3297	0	31016	36040	27096	31995	
3298	0	31072	35957	27100	31992	
3299	0	31092	35996	27100	31991	
3300	0	31082	35918	27088	31988	
3301	0	31104	35880	27042	32016	
3302	0	31124	35856	27044	32000	
3303	0	31144	35794	27022	31956	
3304	0	31136	35882	27012	31970	
3305	0	31104	35882	27002	31946	
3306	0	31126	35828	27006	31924	
3307	0	31112	35808	26976	31958	
3308	0	31082	35818	26964	31944	
3309	0	31094	35847	26946	31962	
3310	0	31044	35854	26980	31954	
3311	0	31008	35799	26964	31980	
3312	0	31020	35722	26972	31980	
3313	0	30928	35848	26966	32000	
3314	0	30842	35828	26950	31976	
3315	0	30768	35928	26984	31967	
3316	0	30670	35886	26990	31964	
3317	0	30586	35928	26984	31986	
3318	0	30450	35936	26972	31971	
3319	0	30408	35998	27034	31978	
3320	0	30388	35846	26989	31972	
3321	0	30392	35952	27041	31982	
3322	0	30412	35792	26994	32004	
3323	0	30488	35764	27014	32007	
3324	0	30604	35734	27044	32000	
3325	0	30692	35680	27050	31990	
3326	0	30752	35898	27082	31948	
3327	0	30798	35864	27057	31976	
3328	0	30934	35874	27054	31988	
3329	0	31080	35933	27044	32004	
3330	0	31244	35980	27073	32004	
3331	0	31328	35924	27086	31976	
3332	0	31508	35909	27104	31976	
3333	0	31734	35920	27076	31992	
3334	0	31848	35898	27136	31968	
3335	0	32004	35808	27094	31948	
3336	0	32204	35799	27098	31964	
3337	0	32376	35764	27118	31956	
3338	0	32564	35968	27098	31962	
3339	0	32775	35896	27106	31962	
3340	0	32891	35930	27138	31980	
3341	0	33066	35932	27112	31951	
3342	0	33188	35852	27104	31924	
3343	0	33274	35808	27096	31940	
3344	0	33342	35924	27100	31934	
3345	0	33436	35944	27088	31952	
3346	0	33504	35813	27050	31946	
3347	0	33504	35966	27076	31919	
3348	0	33506	35922	27064	31948	
3349	0	33512	35936	27064	31921	
3350	0	33472	35948	27042	31940	
3351	0	33512	35928	27012	31962	
3352	0	33504	35940	26984	31960	
3353	0	33540	36038	26980	31960	
3354	0	33518	36040	27004	31958	
3355	0	33572	35934	27018	31952	
3356	0	33618	35850	27036	31930	
3357	0	33616	35884	27042	31956	
3358	0	33656	36000	27048	31926	
3359	0	33642	35872	27032	31936	
3360	0	33682	35994	27036	31934	
3361	0	33684	36024	27036	31936	
3362	0	33668	35906	27008	31916	
3363	0	33686	35854	27012	31910	
3364	0	33718	35952	27028	31924	
3365	0	33743	35980	27022	31914	
3366	0	33705	35876	27022	31916	
3367	0	33748	35918	27038	31896	
3368	0	33748	35968	27024	31898	
3369	0	33737	35928	27060	31884	
3370	0	33688	36062	27058	31930	
3371	0	33740	36042	27078	31936	
3372	0	33708	35918	27072	31936	
3373	0	33722	35952	27064	31968	
3374	0	33732	36006	27104	32018	
3375	0	33746	36010	27132	32024	
3376	0	33720	35948	27141	32048	
3377	0	33713	35936	27138	32031	
3378	0	33690	36026	27148	32032	
3379	0	33716	35992	27150	32026	
3380	0	33650	35968	27118	32040	
3381	0	33660	35908	27094	32016	
3382	0	33668	35950	27086	31968	
3383	0	33656	35948	27064	32000	
3384	0	33657	35934	27092	31976	
3385	0	33658	36004	27076	31982	
3386	0	33686	35952	27068	31944	
3387	0	33632	35972	27076	31949	
3388	0	33588	36034	27034	31984	
3389	0	33568	36052	27032	31978	
3390	0	33536	35888	27054	31953	
3391	0	33556	35868	27048	31968	
3392	0	33519	35932	27054	31996	
3393	0	33516	35954	27024	31996	
3394	0	33512	35916	27061	31994	
3395	0	33514	35832	27038	31988	
3396	0	33562	35914	27040	31968	
3397	0	33536	35926	27020	31980	
3398	0	33541	35968	27054	31940	
3399	0	33512	35928	27044	31976	
3400	0	33510	35956	27064	31932	
3401	0	33448	35904	27046	31946	
3402	0	33482	35870	27042	31952	
3403	0	33512	35876	27049	31965	
3404	0	33456	35864	27038	31970	
3405	0	33532	35900	27042	31976	
3406	0	33466	35912	27050	31984	
3407	0	33512	35881	27014	32004	
3408	0	33500	35936	27046	31975	
3409	0	33516	35948	27048	31968	
3410	0	33508	35984	27048	31968	
3411	0	33464	35910	27024	31964	
3412	0	33482	36004	27016	31970	
3413	0	33440	35894	27068	31938	
3414	0	33389	35852	27046	31932	
3415	0	33310	35976	27048	31952	
3416	0	33280	35984	27072	31948	
3417	0	33302	35888	27074	31940	
3418	0	33288	35845	27036	31948	
3419	0	33236	35836	27060	31932	
3420	0	33258	35774	27093	31908	
3421	0	33252	35938	27060	31934	
3422	0	33296	35852	27034	31952	
3423	0	33316	35940	27037	31930	
3424	0	33322	35962	27008	31948	
3425	0	33400	35882	27020	31914	
3426	0	33382	35962	27036	31928	
3427	0	33376	35744	27040	31932	
3428	0	33438	35920	27014	31924	
3429	0	33406	35824	27010	31922	
3430	0	33336	35886	27018	31938	
3431	0	33368	35890	27003	31954	
3432	0	33402	35912	27048	31924	
3433	0	33340	35820	27024	31940	
3434	0	33400	35878	27034	31930	
3435	0	33340	35874	27020	31944	
3436	0	33307	35816	27024	31938	
3437	0	33352	35810	27033	31936	
3438	0	33340	35832	27022	31964	
3439	0	33346	35900	27044	31944	
3440	0	33312	35980	27052	31950	
3441	0	33280	35957	27032	31944	
3442	0	33306	35906	27030	31943	
3443	0	33324	35874	27028	31944	
3444	0	33280	35862	27058	31972	
3445	0	33256	35994	27048	31976	
3446	0	33246	35948	27050	31962	
3447	0	33304	36028	27028	31968	
3448	0	33272	35962	27013	31960	
3449	0	33062	35972	27024	31936	
3450	0	32470	35828	27024	31950	
3451	0	32048	35930	27044	31946	
3452	0	31917	36017	27022	31949	
3453	0	31856	35794	27006	31964	
3454	0	31984	35824	27044	31943	
3455	0	33556	35930	27050	31942	
3456	0	36326	35864	27068	31943	
3457	0	40112	36120	27048	31956	
3458	0	44240	36250	27048	31930	
3459	0	47492	36120	27042	31944	
3460	0	49808	36096	27050	31966	
3461	0	47626	36058	27068	31956	
3462	0	42144	36200	27042	31964	
3463	0	37022	35996	27004	31982	
3464	0	36122	35936	27008	31980	
3465	0	36236	35974	27000	31962	
3466	0	34916	35948	27004	31968	
3467	0	33526	35928	27008	31982	
3468	0	32414	35800	27023	31977	
3469	0	31606	35776	27002	31989	
3470	0	31040	35780	26996	32028	
3471	0	30752	35779	27034	32014	
3472	0	30586	35916	27066	32000	
3473	0	30508	35904	27082	32000	
3474	0	30484	35760	27100	31950	
3475	0	30532	35767	27036	31938	
3476	0	30588	35598	27054	31942	
3477	0	30640	35904	27050	31952	
3478	0	30664	35888	27094	31950	
3479	0	30756	35831	27080	31932	
3480	0	30818	35972	27077	31960	
3481	0	30833	35824	27032	31980	
3482	0	30892	35860	27020	31984	
3483	0	30928	35892	26990	31980	
3484	0	30956	35966	26953	32016	
3485	0	31003	35912	26980	31992	
3486	0	31039	35870	26929	31988	
3487	0	31080	35824	26957	32010	
3488	0	31130	35769	27011	31962	
3489	0	31096	35760	27048	31965	
3490	0	31096	35727	27036	31964	
3491	0	31165	35872	27092	31980	
3492	0	31194	35866	27086	31974	
3493	0	31222	35816	27100	31944	
3494	0	31336	35822	27106	31973	
3495	0	31354	35812	27090	31977	
3496	0	31424	35864	27112	31961	
3497	0	31412	35916	27096	31994	
3498	0	31406	35848	27056	32016	
3499	0	31404	35888	27074	32032	
3500	0	31424	35920	27074	32000	
3501	0	31428	35822	27010	32018	
3502	0	31438	35760	27018	32004	
3503	0	31404	35818	27042	32000	
3504	0	31360	35740	27013	31992	
3505	0	31392	35908	27008	31964	
3506	0	31404	35880	27002	31960	
3507	0	31362	35882	26977	31941	
3508	0	31352	35739	26977	31968	
3509	0	31272	35872	26990	31970	
3510	0	31264	35808	26965	31976	
3511	0	31240	35828	26930	31984	
3512	0	31140	35864	26988	32002	
3513	0	31092	35813	26952	32024	
3514	0	31053	35880	26959	32010	
3515	0	30996	35816	26960	32006	
3516	0	30922	35786	26964	32026	
3517	0	30866	35950	26990	32018	
3518	0	30776	35820	26986	32028	
3519	0	30726	35864	27012	32032	
3520	0	30756	35844	27004	32022	
3521	0	30772	35808	27024	32014	
3522	0	30819	35902	26996	32002	
3523	0	30894	35748	26990	32016	
3524	0	30944	35658	27000	31992	
3525	0	31036	35812	27008	32009	
3526	0	31023	35878	26996	32014	
3527	0	31092	35852	27006	32008	
3528	0	31230	35868	27012	32000	
3529	0	31301	35924	27036	32020	
3530	0	31376	35824	27008	32002	
3531	0	31440	35814	27004	32016	
3532	0	31520	35892	27012	32004	
3533	0	31718	35960	27040	32007	
3534	0	31852	35884	27040	32002	
3535	0	31973	35888	27048	32004	
3536	0	32148	35897	27044	32020	
3537	0	32306	35814	27030	32032	
3538	0	32482	35802	27018	32022	
3539	0	32584	35960	27047	32028	
3540	0	32836	35922	27040	31994	
3541	0	32936	35960	27036	32016	
3542	0	33061	35914	27050	31980	
3543	0	33236	35984	27044	31994	
3544	0	33336	35888	27060	31988	
3545	0	33472	35916	27034	31994	
3546	0	33503	35946	27042	31995	
3547	0	33522	35904	27012	32000	
3548	0	33573	35904	27006	32000	
3549	0	33668	35970	27008	31988	
3550	0	33708	35864	26984	32012	
3551	0	33696	35946	27008	32000	
3552	0	33736	36048	27026	32020	
3553	0	33721	35882	27012	32040	
3554	0	33724	35932	26987	32024	
3555	0	33752	35930	27024	32016	
3556	0	33742	35916	27020	32044	
3557	0	33736	35948	27000	32064	
3558	0	33688	35938	27032	32041	
3559	0	33708	35818	27020	32034	
3560	0	33676	35857	27024	32036	
3561	0	33652	35948	27014	32029	
3562	0	33650	35824	27012	32024	
3563	0	33652	35906	27030	31988	
3564	0	33680	35920	27040	32010	
3565	0	33654	35934	27032	32020	
3566	0	33648	35908	27044	32018	
3567	0	33632	35842	27044	32032	
3568	0	33662	35984	27032	32024	
3569	0	33664	35920	27040	32005	
3570	0	33660	35957	27013	32034	
3571	0	33740	35938	27020	32012	
3572	0	33722	35904	27010	32032	
3573	0	33714	36070	27038	32044	
3574	0	33743	35968	27036	32064	
3575	0	33708	35846	27018	32030	
3576	0	33732	35980	27008	32034	
3577	0	33736	35922	26984	32034	
3578	0	33698	35756	27018	31988	
3579	0	33658	35834	27008	32024	
3580	0	33654	35840	27022	32002	
3581	0	33652	35842	27004	31984	
3582	0	33662	35884	27016	31984	
3583	0	33658	35951	27040	31992	
3584	0	33668	35844	27034	31994	
3585	0	33654	35784	27016	31984	
3586	0	33634	35885	27040	31986	
3587	0	33616	35872	27028	31996	
3588	0	33582	35916	27010	31981	
3589	0	33584	35860	27010	31999	
3590	0	33604	35844	27008	32022	
3591	0	33618	35818	27019	31984	
3592	0	33594	35886	27028	32012	
3593	0	33566	35980	27014	32004	
3594	0	33580	35888	27022	32004	
3595	0	33544	35852	27020	32004	
3596	0	33514	35964	27040	32030	
3597	0	33522	35938	27032	32007	
3598	0	33496	35814	27048	32000	
3599	0	33486	35860	27032	32030	
3600	0	33536	35954	27042	32020	
3601	0	33506	35800	27036	32040	
3602	0	33500	35848	27032	32018	
3603	0	33464	35924	27060	32004	
3604	0	33474	35846	27056	32028	
3605	0	33418	35832	27013	32034	
3606	0	33426	35848	27066	32028	
3607	0	33400	35907	27061	32012	
3608	0	33328	35882	27040	32050	
3609	0	33326	35792	27046	32044	
3610	0	33290	35812	27049	32048	
3611	0	33242	35904	27014	32046	
3612	0	33290	35988	27030	32050	
3613	0	33272	35834	27048	32034	
3614	0	33270	35880	27036	32063	
3615	0	33212	35822	27034	32050	
3616	0	33218	35850	27036	32068	
3617	0	33244	35952	27028	32066	
3618	0	33258	35868	27060	32065	
3619	0	33238	36004	27026	32076	
3620	0	33172	35888	27050	32069	
3621	0	33152	35924	27032	32032	
3622	0	33154	35948	27030	32046	
3623	0	33165	35780	27023	32028	
3624	0	33150	35848	27050	32046	
3625	0	33120	35928	27036	32064	
3626	0	33096	35934	27016	32064	
3627	0	33066	35962	27041	32056	
3628	0	33066	35868	27034	32054	
3629	0	33068	35962	27028	32048	
3630	0	33072	35864	27012	32040	
3631	0	33004	35898	27030	32052	
3632	0	33044	35890	27020	32042	
3633	0	33066	35900	27038	32024	
3634	0	33092	35888	27028	32016	
3635	0	33108	35712	27006	32044	
3636	0	33094	35916	27022	32016	
3637	0	33060	35856	27046	32036	
3638	0	33064	35748	27000	32044	
3639	0	33032	35893	26988	32040	
3640	0	33006	35898	26992	32038	
3641	0	32980	35858	27012	32044	
3642	0	32976	35876	27036	32044	
3643	0	32920	35840	27002	32040	
3644	0	32972	35732	27012	32034	
3645	0	32928	35926	27048	32028	
3646	0	32926	36004	27048	32024	
3647	0	32916	36028	27024	32032	
3648	0	32892	35990	27012	32012	
3649	0	32954	35940	26992	32020	
3650	0	32910	35910	27001	32048	
3651	0	32912	35826	27031	32012	
3652	0	32912	35828	26990	32030	
3653	0	32906	35930	26996	32032	
3654	0	32916	35844	26984	32044	
3655	0	32864	35748	26996	32018	
3656	0	32908	35944	27016	32032	
3657	0	32896	35908	27024	32020	
3658	0	32888	35752	27002	32008	
3659	0	32936	35930	27020	32012	
3660	0	32934	35904	27028	31994	
3661	0	32898	36028	27034	31989	
3662	0	32868	35898	27012	32002	
3663	0	32842	35860	27032	31992	
3664	0	32832	35837	27008	31978	
3665	0	32802	35972	27010	32000	
3666	0	32788	35968	27008	31996	
3667	0	32744	35968	27000	31968	
3668	0	32736	36000	27026	32002	
3669	0	32676	35922	27024	31996	
3670	0	32644	35996	27024	31970	
3671	0	32560	35952	27032	31972	
3672	0	32622	35946	27065	31981	
3673	0	32620	35948	27050	31982	
3674	0	32602	35996	27034	31984	
3675	0	32618	35928	27052	31994	
3676	0	32664	35900	27064	31991	
3677	0	32688	35928	27056	31980	
3678	0	32704	35944	27036	31980	
3679	0	32736	35924	27026	31988	
3680	0	32780	35872	27036	31964	
3681	0	32808	35916	27036	31985	
3682	0	32838	36044	27040	31972	
3683	0	32796	35922	27050	31980	
3684	0	32784	35872	27052	31958	
3685	0	32738	35963	27056	31966	
3686	0	32724	36024	27049	31952	
3687	0	32690	35988	27044	31960	
3688	0	32716	35942	27032	31964	
3689	0	32732	35929	27018	31980	
3690	0	32752	35944	27002	31972	
3691	0	32804	35982	27012	31984	
3692	0	32820	35984	27018	31964	
3693	0	32801	35900	27026	31958	
3694	0	32764	35864	26988	31972	
3695	0	32754	35948	27018	31966	
3696	0	32706	35938	27021	31944	
3697	0	32634	35920	27034	31940	
3698	0	32644	36024	27008	31982	
3699	0	32694	35906	27002	31970	
3700	0	32710	35900	27020	31996	
3701	0	32660	35812	26994	31944	
3702	0	32388	35876	27024	31960	
3703	0	31772	35888	27000	31960	
3704	0	31364	35848	27010	31960	
3705	0	31354	35914	26992	31976	
3706	0	31342	35872	27008	31952	
3707	0	31959	35884	27016	31960	
3708	0	34012	36004	27024	31962	
3709	0	36884	35934	27012	31964	
3710	0	40592	36184	27018	31972	
3711	0	43898	36182	27012	31962	
3712	0	46662	36164	27020	31980	
3713	0	48016	35980	27008	31980	
3714	0	44820	36206	26991	31974	
3715	0	39641	36142	27008	31974	
3716	0	35304	35882	26986	31956	
3717	0	35582	35980	26980	31986	
3718	0	35025	35976	26977	31979	
3719	0	33768	35936	26984	31977	
3720	0	32636	35994	26982	31954	
3721	0	31700	35808	26998	31974	
3722	0	31104	35766	27016	31981	
3723	0	30692	35720	27022	31996	
3724	0	30458	35896	27040	31988	
3725	0	30330	35850	27080	31936	
3726	0	30317	35888	27078	31929	
3727	0	30386	35736	27056	31936	
3728	0	30464	35724	27052	31914	
3729	0	30554	35820	27040	31941	
3730	0	30616	35854	27022	31926	
3731	0	30654	35980	27048	31944	
3732	0	30670	35806	27036	31956	
3733	0	30716	35908	27008	31956	
3734	0	30792	35886	26980	31988	
3735	0	30800	35832	26984	32016	
3736	0	30789	36052	26956	31996	
3737	0	30824	35980	26970	32005	
3738	0	30856	36042	26962	32024	
3739	0	30920	35824	26960	32016	
3740	0	31039	35714	26994	32018	
3741	0	31057	35868	27050	32002	
3742	0	31008	35916	27048	31992	
3743	0	31016	35707	27040	31958	
3744	0	31076	35726	27072	31916	
3745	0	31131	35739	27054	31912	
3746	0	31206	35816	27042	31920	
3747	0	31220	35862	27066	31952	
3748	0	31232	35840	27043	31965	
3749	0	31148	35808	27028	31978	
3750	0	31202	35848	27056	31984	
3751	0	31208	35848	27000	32024	
3752	0	31226	35912	27028	32008	
3753	0	31210	35800	26988	32018	
3754	0	31328	35976	27010	32000	
