# OpenSignals Text File Format. Version 1
# {"00:07:80:0F:2F:AD": {"position": 0, "device": "biosignalsplux", "device name": "00:07:80:0F:2F:AD", "device connection": "BTH00:07:80:0F:2F:AD", "sampling rate": 1000, "resolution": [16, 16, 16, 16], "firmware version": 776, "comments": "", "keywords": "", "mode": 0, "sync interval": 2, "date": "2024-1-15", "time": "16:0:0.959", "channels": [1, 5, 6, 7], "sensor": ["EMG", "XYZ", "XYZ", "XYZ"], "label": ["CH1", "CH5", "CH6", "CH7"], "column": ["nSeq", "DI", "CH1", "CH5", "CH6", "CH7"], "special": [{"SpO2": [80, 40, 5, 4, 3, 3]}, {"SpO2": [80, 40, 5, 4, 3, 3]}, {"SpO2": [80, 40, 5, 4, 3, 3]}, {"SpO2": [80, 40, 5, 4, 3, 3]}, {"SpO2": [80, 40, 5, 4, 3, 3]}, {"SpO2": [80, 40, 5, 4, 3, 3]}, {"SpO2": [80, 40, 5, 4, 3, 3]}, {"SpO2": [80, 40, 5, 4, 3, 3]}], "digital IO": [0, 1], "sleeve color": ["dark_blue", "white", "white", "white"], "convertedValues": 0}}
# EndOfHeader
0	0	32783	33784	38498	33866	
1	0	32824	33668	38512	33879	
2	0	32724	33682	38522	33880	
3	0	32620	33730	38548	33873	
4	0	32684	33636	38536	33874	
5	0	32800	33556	38496	33870	
6	0	32816	33508	38492	33896	
7	0	32822	33600	38490	33884	
8	0	32804	33664	38478	33908	
9	0	32932	33672	38460	33920	
10	0	32917	33696	38457	33925	
11	0	32826	33700	38472	33936	
12	0	32818	33898	38452	33962	
13	0	32796	33722	38414	33966	
14	0	32674	33856	38444	33980	
15	0	32556	33796	38452	33994	
16	0	32366	33870	38472	34002	
17	0	32596	33619	38464	33992	
18	0	32768	33706	38490	34016	
19	0	32850	33786	38492	34016	
20	0	32850	33665	38475	34020	
21	0	32840	33696	38498	34026	
22	0	32794	33556	38536	34024	
23	0	32866	33544	38518	34030	
24	0	32859	33648	38542	34016	
25	0	32832	33560	38546	34008	
26	0	32864	33554	38546	34002	
27	0	32844	33468	38524	34016	
28	0	32794	33498	38548	34026	
29	0	32818	33408	38534	34038	
30	0	32809	33522	38540	34028	
31	0	32760	33572	38540	34030	
32	0	32746	33594	38552	34034	
33	0	32792	33496	38560	34048	
34	0	32816	33497	38558	34033	
35	0	32914	33654	38584	34024	
36	0	32835	33566	38548	34034	
37	0	32812	33518	38566	34040	
38	0	32534	33508	38560	34020	
39	0	32510	33643	38542	34020	
40	0	32662	33576	38550	34012	
41	0	32758	33640	38548	34004	
42	0	32744	33542	38538	33990	
43	0	32936	33698	38528	33980	
44	0	32856	33508	38528	33956	
45	0	32928	33602	38522	33914	
46	0	32859	33704	38530	33890	
47	0	32874	33676	38542	33873	
48	0	32716	33752	38528	33842	
49	0	32670	33612	38530	33836	
50	0	32840	33770	38536	33796	
51	0	32783	33692	38544	33789	
52	0	32544	33580	38532	33796	
53	0	32588	33672	38506	33758	
54	0	32760	33768	38508	33754	
55	0	32848	33632	38510	33732	
56	0	32912	33742	38532	33716	
57	0	32824	33804	38526	33703	
58	0	32832	33718	38490	33716	
59	0	32832	33716	38514	33718	
60	0	32812	33736	38490	33740	
61	0	32788	33668	38471	33776	
62	0	32688	33736	38470	33794	
63	0	32700	33598	38488	33808	
64	0	32712	33694	38458	33860	
65	0	32760	33694	38428	33860	
66	0	32804	33727	38428	33878	
67	0	32844	33804	38412	33900	
68	0	32676	33768	38414	33881	
69	0	32704	33896	38412	33898	
70	0	32754	33652	38434	33894	
71	0	32860	33702	38428	33920	
72	0	32966	33768	38420	33932	
73	0	32910	33762	38428	33944	
74	0	32926	33692	38428	33946	
75	0	32908	33756	38436	33954	
76	0	32823	33684	38432	33974	
77	0	32678	33756	38408	33974	
78	0	32498	33664	38430	33980	
79	0	32396	33772	38436	33990	
80	0	32558	33680	38442	33998	
81	0	32686	33808	38440	34008	
82	0	32712	33646	38474	33992	
83	0	32824	33707	38472	33988	
84	0	32810	33736	38466	33950	
85	0	32876	33712	38486	33942	
86	0	32984	33722	38512	33922	
87	0	32964	33732	38520	33912	
88	0	32870	33564	38512	33888	
89	0	32808	33646	38516	33888	
90	0	32820	33648	38504	33900	
91	0	32816	33556	38478	33892	
92	0	32784	33646	38478	33912	
93	0	32826	33652	38482	33908	
94	0	32756	33570	38479	33906	
95	0	32804	33600	38484	33928	
96	0	32708	33463	38496	33916	
97	0	32773	33560	38492	33927	
98	0	32758	33536	38490	33928	
99	0	32654	33520	38504	33944	
100	0	32672	33540	38492	33956	
101	0	32682	33636	38526	33962	
102	0	32684	33472	38534	33954	
103	0	32778	33414	38512	33958	
104	0	32805	33566	38528	33952	
105	0	32831	33437	38546	33924	
106	0	32898	33518	38558	33912	
107	0	32824	33468	38586	33900	
108	0	32824	33415	38562	33882	
109	0	32752	33520	38584	33876	
110	0	32688	33444	38568	33864	
111	0	32794	33516	38547	33832	
112	0	32788	33508	38548	33832	
113	0	32804	33480	38580	33818	
114	0	32776	33524	38574	33814	
115	0	32776	33478	38550	33804	
116	0	32842	33620	38562	33788	
117	0	32782	33480	38544	33782	
118	0	32847	33402	38548	33792	
119	0	32807	33568	38560	33788	
120	0	32794	33532	38539	33766	
121	0	32868	33472	38529	33770	
122	0	32736	33549	38520	33768	
123	0	32530	33560	38518	33748	
124	0	32546	33588	38512	33758	
125	0	32736	33442	38484	33784	
126	0	32812	33492	38512	33782	
127	0	32768	33600	38486	33792	
128	0	32684	33578	38512	33764	
129	0	32584	33556	38530	33764	
130	0	32763	33578	38496	33768	
131	0	32920	33742	38476	33776	
132	0	32921	33536	38504	33752	
133	0	32868	33764	38487	33792	
134	0	32716	33614	38496	33786	
135	0	32632	33580	38502	33780	
136	0	32688	33608	38514	33772	
137	0	32768	33642	38512	33772	
138	0	32821	33736	38491	33786	
139	0	32843	33771	38496	33784	
140	0	32800	33668	38500	33796	
141	0	32886	33688	38522	33788	
142	0	32926	33661	38520	33780	
143	0	32834	33656	38524	33780	
144	0	32836	33688	38532	33792	
145	0	32822	33542	38552	33774	
146	0	32755	33653	38548	33776	
147	0	32750	33708	38560	33774	
148	0	32802	33656	38546	33749	
149	0	32720	33704	38552	33744	
150	0	32724	33756	38536	33751	
151	0	32680	33838	38544	33738	
152	0	32682	33736	38568	33746	
153	0	32741	33598	38540	33736	
154	0	32736	33686	38544	33742	
155	0	32716	33626	38532	33750	
156	0	32722	33708	38532	33732	
157	0	32750	33658	38540	33735	
158	0	32824	33634	38519	33747	
159	0	32773	33671	38522	33768	
160	0	32948	33710	38532	33781	
161	0	33032	33648	38516	33782	
162	0	33072	33754	38520	33810	
163	0	32966	33736	38522	33818	
164	0	32996	33604	38536	33832	
165	0	32960	33528	38550	33840	
166	0	32980	33610	38531	33856	
167	0	32867	33526	38520	33860	
168	0	32696	33488	38528	33862	
169	0	32676	33500	38514	33896	
170	0	32632	33684	38528	33887	
171	0	32578	33532	38568	33878	
172	0	32592	33432	38560	33880	
173	0	32636	33524	38582	33872	
174	0	32556	33480	38550	33876	
175	0	32602	33540	38576	33873	
176	0	32456	33452	38574	33836	
177	0	32436	33640	38560	33824	
178	0	32468	33748	38558	33816	
179	0	32620	33621	38560	33828	
180	0	32688	33544	38560	33818	
181	0	32684	33564	38564	33828	
182	0	32797	33626	38549	33814	
183	0	32990	33704	38570	33806	
184	0	32964	33640	38570	33796	
185	0	32936	33646	38576	33774	
186	0	32884	33644	38554	33766	
187	0	32949	33640	38553	33760	
188	0	33110	33619	38544	33760	
189	0	33004	33632	38544	33752	
190	0	33054	33614	38552	33716	
191	0	32968	33568	38538	33724	
192	0	32971	33508	38510	33720	
193	0	32824	33480	38496	33728	
194	0	32599	33532	38508	33716	
195	0	32516	33527	38510	33706	
196	0	32584	33452	38520	33707	
197	0	32480	33664	38530	33728	
198	0	32700	33618	38536	33719	
199	0	32746	33444	38543	33728	
200	0	32755	33528	38520	33772	
201	0	32816	33589	38528	33776	
202	0	32744	33644	38528	33802	
203	0	32752	33440	38527	33808	
204	0	32648	33610	38532	33820	
205	0	32570	33626	38536	33835	
206	0	32738	33596	38540	33824	
207	0	32836	33599	38544	33828	
208	0	32802	33608	38528	33842	
209	0	32768	33616	38530	33849	
210	0	32934	33648	38532	33842	
211	0	33022	33514	38544	33832	
212	0	32914	33610	38528	33840	
213	0	32844	33666	38534	33828	
214	0	32900	33580	38524	33800	
215	0	32756	33606	38518	33786	
216	0	32662	33618	38516	33770	
217	0	32708	33690	38528	33780	
218	0	32792	33624	38506	33752	
219	0	32834	33754	38498	33746	
220	0	32805	33568	38500	33730	
221	0	32701	33528	38504	33716	
222	0	32616	33644	38492	33718	
223	0	32660	33761	38496	33732	
224	0	32604	33678	38506	33730	
225	0	32776	33624	38489	33738	
226	0	32780	33688	38504	33734	
227	0	32694	33720	38494	33756	
228	0	32696	33796	38470	33752	
229	0	32768	33636	38475	33774	
230	0	32880	33622	38484	33794	
231	0	32980	33684	38504	33802	
232	0	32854	33670	38494	33828	
233	0	32856	33676	38512	33816	
234	0	32824	33572	38504	33842	
235	0	32744	33688	38546	33848	
236	0	32762	33674	38532	33876	
237	0	32724	33670	38540	33888	
238	0	32730	33600	38570	33904	
239	0	32804	33690	38568	33917	
240	0	32896	33606	38592	33928	
241	0	32836	33649	38608	33948	
242	0	32862	33570	38608	33983	
243	0	32816	33656	38617	33988	
244	0	32809	33666	38627	33980	
245	0	32784	33544	38656	33994	
246	0	32754	33586	38664	33992	
247	0	32815	33624	38688	34004	
248	0	32762	33668	38672	34014	
249	0	32788	33580	38664	33990	
250	0	32788	33592	38638	33978	
251	0	32945	33582	38685	33954	
252	0	33020	33656	38660	33935	
253	0	33071	33544	38678	33940	
254	0	32994	33496	38650	33920	
255	0	33024	33580	38641	33916	
256	0	33024	33598	38616	33910	
257	0	32956	33580	38604	33886	
258	0	32954	33742	38598	33861	
259	0	32946	33566	38600	33845	
260	0	32882	33384	38562	33832	
261	0	32956	33716	38564	33836	
262	0	33378	33610	38546	33804	
263	0	33714	33564	38535	33808	
264	0	33780	33818	38532	33792	
265	0	33405	33708	38508	33786	
266	0	32782	33602	38492	33778	
267	0	32239	33564	38490	33764	
268	0	31864	33620	38496	33762	
269	0	31556	33652	38486	33752	
270	0	31260	33700	38464	33734	
271	0	31168	33692	38456	33740	
272	0	31262	33640	38455	33736	
273	0	31448	33658	38436	33760	
274	0	31392	33688	38448	33736	
275	0	31514	33678	38448	33740	
276	0	31852	33717	38434	33740	
277	0	32444	33719	38452	33748	
278	0	32788	33722	38468	33750	
279	0	33093	33728	38470	33740	
280	0	33536	33644	38494	33742	
281	0	33866	33736	38484	33750	
282	0	33948	33748	38500	33754	
283	0	34118	33798	38508	33762	
284	0	34436	33864	38516	33785	
285	0	34301	33686	38528	33782	
286	0	33822	33670	38544	33792	
287	0	33248	33692	38558	33804	
288	0	33032	33700	38560	33800	
289	0	32858	33730	38578	33820	
290	0	32680	33681	38574	33812	
291	0	32462	33666	38584	33820	
292	0	32511	33744	38592	33828	
293	0	32438	33648	38618	33826	
294	0	32236	33664	38592	33858	
295	0	31989	33636	38596	33868	
296	0	31858	33677	38614	33882	
297	0	31920	33626	38632	33894	
298	0	31992	33558	38624	33888	
299	0	32288	33560	38606	33880	
300	0	32900	33678	38623	33896	
301	0	32968	33602	38624	33892	
302	0	32960	33512	38620	33888	
303	0	32936	33544	38620	33858	
304	0	32688	33608	38604	33880	
305	0	32546	33612	38606	33860	
306	0	32766	33648	38600	33869	
307	0	33136	33696	38606	33860	
308	0	33176	33646	38592	33846	
309	0	33212	33520	38592	33850	
310	0	33310	33680	38571	33844	
311	0	33344	33644	38565	33862	
312	0	33176	33708	38528	33870	
313	0	33082	33486	38518	33868	
314	0	33034	33556	38516	33882	
315	0	32920	33676	38490	33874	
316	0	32832	33507	38474	33864	
317	0	32922	33734	38496	33845	
318	0	33134	33690	38504	33832	
319	0	33049	33568	38470	33816	
320	0	32874	33600	38478	33808	
321	0	32439	33692	38488	33816	
322	0	32423	33574	38460	33794	
323	0	32376	33570	38488	33772	
324	0	32226	33642	38466	33772	
325	0	32452	33600	38454	33758	
326	0	32634	33520	38480	33736	
327	0	33074	33664	38476	33758	
328	0	33288	33538	38496	33732	
329	0	33428	33610	38504	33720	
330	0	33982	33674	38540	33698	
331	0	33778	33504	38516	33696	
332	0	33210	33584	38516	33712	
333	0	33076	33720	38542	33688	
334	0	32849	33664	38552	33695	
335	0	32768	33750	38560	33668	
336	0	32516	33612	38558	33667	
337	0	32372	33608	38608	33664	
338	0	32212	33450	38583	33658	
339	0	32224	33520	38600	33664	
340	0	32402	33594	38596	33679	
341	0	31960	33648	38608	33684	
342	0	31517	33638	38604	33690	
343	0	31332	33562	38620	33672	
344	0	31308	33568	38614	33688	
345	0	31598	33642	38622	33684	
346	0	32164	33566	38616	33690	
347	0	32344	33510	38618	33685	
348	0	32742	33724	38634	33693	
349	0	33018	33744	38628	33708	
350	0	33201	33772	38622	33709	
351	0	33110	33746	38632	33728	
352	0	33090	33685	38592	33728	
353	0	33144	33684	38598	33760	
354	0	33286	33622	38592	33778	
355	0	33312	33720	38582	33808	
356	0	33294	33506	38587	33846	
357	0	33548	33548	38582	33868	
358	0	33704	33656	38562	33914	
359	0	33496	33746	38590	33926	
360	0	33616	33604	38602	33948	
361	0	33636	33568	38586	33952	
362	0	33384	33664	38558	33960	
363	0	32861	33660	38540	33960	
364	0	32808	33690	38534	33940	
365	0	32624	33668	38540	33924	
366	0	32840	33613	38528	33902	
367	0	32538	33504	38514	33888	
368	0	32274	33637	38494	33871	
369	0	32160	33576	38484	33839	
370	0	32138	33571	38452	33836	
371	0	32096	33604	38431	33827	
372	0	32106	33642	38434	33816	
373	0	32208	33688	38426	33807	
374	0	32268	33600	38400	33802	
375	0	32334	33632	38412	33792	
376	0	32340	33694	38424	33794	
377	0	32524	33586	38436	33786	
378	0	32952	33724	38426	33788	
379	0	33160	33704	38424	33800	
380	0	32924	33580	38450	33767	
381	0	33060	33724	38456	33762	
382	0	33236	33586	38454	33742	
383	0	33280	33682	38472	33710	
384	0	33054	33716	38468	33731	
385	0	33292	33626	38478	33704	
386	0	34304	33664	38482	33694	
387	0	34432	33630	38482	33684	
388	0	34012	33648	38500	33676	
389	0	33204	33682	38508	33679	
390	0	32749	33664	38522	33690	
391	0	32490	33656	38530	33687	
392	0	32046	33516	38540	33689	
393	0	31706	33518	38540	33702	
394	0	32212	33513	38556	33690	
395	0	32484	33598	38544	33692	
396	0	32344	33562	38550	33696	
397	0	32232	33502	38565	33698	
398	0	31932	33487	38576	33696	
399	0	31589	33496	38582	33688	
400	0	31454	33548	38568	33666	
401	0	31417	33564	38590	33641	
402	0	31822	33562	38580	33632	
403	0	32268	33617	38554	33614	
404	0	32646	33492	38552	33600	
405	0	32910	33582	38548	33594	
406	0	33130	33504	38540	33578	
407	0	33280	33610	38522	33572	
408	0	33324	33608	38498	33544	
409	0	33352	33472	38498	33538	
410	0	33424	33576	38516	33527	
411	0	33378	33616	38472	33536	
412	0	33302	33630	38462	33526	
413	0	33228	33620	38474	33540	
414	0	33156	33549	38433	33548	
415	0	33085	33612	38434	33558	
416	0	33088	33688	38428	33547	
417	0	33024	33596	38416	33544	
418	0	33264	33580	38402	33564	
419	0	33080	33678	38420	33548	
420	0	33080	33572	38430	33560	
421	0	33776	33544	38432	33552	
422	0	33920	33536	38408	33580	
423	0	33402	33535	38416	33598	
424	0	32668	33546	38431	33586	
425	0	32106	33692	38442	33604	
426	0	31836	33582	38428	33622	
427	0	31630	33440	38416	33640	
428	0	31656	33504	38426	33636	
429	0	31770	33582	38442	33632	
430	0	31872	33572	38444	33626	
431	0	31976	33554	38440	33642	
432	0	32200	33514	38432	33670	
433	0	32484	33652	38480	33674	
434	0	32948	33556	38482	33690	
435	0	33236	33514	38490	33710	
436	0	33474	33536	38474	33748	
437	0	33640	33560	38504	33792	
438	0	33654	33544	38516	33808	
439	0	33490	33504	38522	33818	
440	0	33192	33664	38536	33816	
441	0	32818	33674	38519	33826	
442	0	33238	33612	38538	33825	
443	0	34120	33690	38572	33814	
444	0	34180	33655	38566	33808	
445	0	34250	33568	38566	33836	
446	0	35278	33656	38568	33832	
447	0	35233	33688	38568	33840	
448	0	33632	33586	38576	33826	
449	0	32814	33672	38564	33806	
450	0	31730	33501	38556	33816	
451	0	30844	33576	38580	33797	
452	0	30546	33664	38568	33820	
453	0	30186	33612	38564	33812	
454	0	29904	33583	38581	33806	
455	0	29976	33482	38575	33794	
456	0	30110	33538	38584	33794	
457	0	30402	33622	38586	33780	
458	0	30968	33670	38576	33762	
459	0	31532	33554	38596	33728	
460	0	31968	33620	38587	33712	
461	0	32716	33656	38594	33692	
462	0	34016	33652	38597	33684	
463	0	34568	33838	38600	33676	
464	0	34952	33860	38602	33684	
465	0	34676	33736	38602	33662	
466	0	34188	33706	38588	33664	
467	0	33828	33664	38556	33672	
468	0	33476	33702	38562	33656	
469	0	33138	33671	38606	33630	
470	0	33002	33620	38564	33620	
471	0	33284	33626	38548	33626	
472	0	34054	33595	38528	33622	
473	0	34350	33734	38518	33604	
474	0	33568	33652	38512	33572	
475	0	32764	33612	38494	33578	
476	0	32186	33526	38494	33552	
477	0	31654	33602	38482	33540	
478	0	31744	33648	38474	33546	
479	0	32240	33626	38460	33548	
480	0	32496	33652	38436	33568	
481	0	32560	33646	38448	33547	
482	0	32520	33496	38452	33552	
483	0	32442	33612	38448	33570	
484	0	32152	33620	38464	33572	
485	0	32176	33666	38448	33588	
486	0	32484	33652	38439	33592	
487	0	32724	33650	38430	33594	
488	0	33038	33550	38440	33600	
489	0	33007	33706	38454	33612	
490	0	33096	33680	38448	33646	
491	0	32974	33686	38434	33666	
492	0	32804	33706	38458	33666	
493	0	32778	33626	38456	33706	
494	0	32692	33708	38460	33712	
495	0	32850	33696	38446	33732	
496	0	33048	33734	38452	33758	
497	0	32982	33756	38474	33762	
498	0	33014	33682	38492	33746	
499	0	33160	33582	38500	33750	
500	0	33154	33604	38516	33738	
501	0	33070	33672	38508	33712	
502	0	33038	33818	38532	33696	
503	0	32975	33868	38550	33680	
504	0	32842	33652	38560	33660	
505	0	32748	33740	38568	33634	
506	0	32756	33782	38580	33652	
507	0	32794	33700	38574	33618	
508	0	32860	33673	38572	33618	
509	0	33008	33743	38562	33590	
510	0	33334	33568	38570	33578	
511	0	33442	33642	38587	33576	
512	0	33132	33728	38610	33570	
513	0	32880	33626	38600	33568	
514	0	32417	33634	38616	33572	
515	0	32116	33620	38632	33592	
516	0	31982	33458	38592	33620	
517	0	32140	33618	38612	33644	
518	0	32168	33492	38608	33646	
519	0	32256	33578	38636	33664	
520	0	32304	33648	38660	33672	
521	0	32319	33580	38656	33676	
522	0	32709	33666	38678	33706	
523	0	33112	33508	38663	33712	
524	0	33322	33588	38674	33714	
525	0	33258	33660	38672	33736	
526	0	33464	33784	38658	33725	
527	0	33674	33643	38640	33732	
528	0	34292	33702	38658	33725	
529	0	34548	33654	38672	33710	
530	0	33648	33592	38658	33702	
531	0	32736	33554	38644	33693	
532	0	32274	33798	38632	33664	
533	0	31664	33610	38618	33674	
534	0	31272	33564	38648	33647	
535	0	31228	33664	38592	33652	
536	0	31080	33646	38594	33646	
537	0	31360	33622	38606	33650	
538	0	31640	33664	38607	33664	
539	0	31928	33559	38576	33654	
540	0	32690	33603	38554	33649	
541	0	32980	33664	38570	33660	
542	0	32992	33610	38569	33666	
543	0	33165	33500	38570	33664	
544	0	33746	33694	38560	33658	
545	0	33748	33620	38556	33678	
546	0	33244	33528	38542	33704	
547	0	32532	33520	38518	33706	
548	0	32026	33600	38554	33723	
549	0	32084	33638	38528	33736	
550	0	32610	33642	38528	33755	
551	0	32858	33650	38528	33774	
552	0	33770	33668	38528	33774	
553	0	34302	33584	38522	33800	
554	0	33880	33638	38514	33794	
555	0	33298	33670	38506	33798	
556	0	34282	33680	38528	33784	
557	0	36008	33646	38528	33766	
558	0	35120	33639	38506	33778	
559	0	33774	33735	38506	33774	
560	0	32210	33693	38498	33732	
561	0	31072	33646	38521	33736	
562	0	30364	33574	38524	33708	
563	0	29668	33545	38528	33704	
564	0	29368	33510	38532	33682	
565	0	29256	33636	38540	33690	
566	0	29636	33614	38524	33708	
567	0	30526	33498	38514	33706	
568	0	31366	33632	38524	33686	
569	0	32488	33653	38516	33660	
570	0	33470	33604	38574	33648	
571	0	34024	33744	38570	33656	
572	0	34554	33776	38572	33636	
573	0	34694	33760	38600	33634	
574	0	34618	33868	38604	33638	
575	0	34468	33818	38632	33624	
576	0	34236	33718	38636	33622	
577	0	34118	33828	38616	33636	
578	0	33870	33674	38613	33642	
579	0	33734	33892	38600	33634	
580	0	33386	33719	38612	33640	
581	0	33184	33685	38594	33628	
582	0	33672	33792	38600	33630	
583	0	33540	33736	38570	33626	
584	0	33810	33812	38584	33642	
585	0	33716	33778	38574	33620	
586	0	33228	33844	38596	33616	
587	0	32965	33676	38566	33620	
588	0	32482	33672	38564	33622	
589	0	31866	33712	38556	33642	
590	0	31125	33622	38554	33642	
591	0	30720	33524	38555	33652	
592	0	30762	33708	38586	33668	
593	0	31143	33758	38570	33672	
594	0	31824	33744	38552	33664	
595	0	32408	33652	38606	33658	
596	0	32670	33786	38584	33650	
597	0	33039	33728	38629	33664	
598	0	33254	33712	38634	33642	
599	0	33694	33728	38620	33638	
600	0	33788	33655	38632	33666	
601	0	33450	33718	38648	33652	
602	0	33486	33744	38650	33664	
603	0	33886	33800	38658	33660	
604	0	34040	33706	38680	33663	
605	0	33632	33602	38688	33654	
606	0	32802	33712	38678	33656	
607	0	32226	33700	38658	33662	
608	0	31746	33770	38645	33678	
609	0	31314	33710	38640	33668	
610	0	31250	33646	38673	33664	
611	0	31545	33676	38680	33664	
612	0	32302	33696	38662	33666	
613	0	33192	33704	38636	33696	
614	0	33096	33748	38624	33670	
615	0	32884	33744	38626	33648	
616	0	32650	33757	38644	33656	
617	0	32556	33758	38650	33638	
618	0	32388	33668	38632	33632	
619	0	32507	33698	38641	33631	
620	0	32596	33546	38640	33622	
621	0	32700	33664	38638	33614	
622	0	32778	33728	38642	33624	
623	0	32855	33684	38596	33650	
624	0	32964	33724	38612	33656	
625	0	32714	33728	38610	33672	
626	0	32808	33741	38624	33674	
627	0	32960	33770	38604	33692	
628	0	33170	33700	38636	33709	
629	0	33324	33712	38636	33732	
630	0	33340	33608	38644	33728	
631	0	33498	33694	38610	33748	
632	0	34012	33770	38628	33776	
633	0	34928	33760	38622	33786	
634	0	34944	33664	38642	33804	
635	0	34840	33716	38650	33812	
636	0	32872	33632	38656	33838	
637	0	31400	33562	38644	33836	
638	0	30734	33620	38682	33840	
639	0	30746	33578	38682	33872	
640	0	30826	33626	38698	33872	
641	0	30984	33516	38704	33880	
642	0	31308	33467	38726	33872	
643	0	32017	33568	38718	33876	
644	0	32330	33430	38720	33876	
645	0	33176	33668	38730	33888	
646	0	33208	33624	38754	33864	
647	0	33180	33652	38752	33854	
648	0	33322	33562	38752	33832	
649	0	34155	33612	38764	33840	
650	0	34846	33640	38762	33820	
651	0	34504	33758	38752	33813	
652	0	34138	33636	38720	33800	
653	0	33808	33492	38696	33796	
654	0	34164	33436	38711	33810	
655	0	33652	33567	38668	33814	
656	0	32276	33601	38652	33808	
657	0	31216	33548	38660	33816	
658	0	30194	33564	38646	33836	
659	0	29356	33432	38628	33824	
660	0	28870	33504	38624	33864	
661	0	29755	33428	38616	33882	
662	0	31375	33640	38622	33888	
663	0	32549	33592	38620	33900	
664	0	34094	33600	38604	33914	
665	0	36128	33684	38620	33894	
666	0	36216	33638	38620	33894	
667	0	34816	33666	38625	33892	
668	0	33532	33612	38624	33840	
669	0	35393	33854	38607	33844	
670	0	36868	33720	38612	33845	
671	0	34676	33762	38584	33822	
672	0	31464	33564	38568	33810	
673	0	30048	33536	38586	33792	
674	0	30862	33528	38599	33764	
675	0	31570	33640	38572	33748	
676	0	30472	33549	38558	33712	
677	0	29556	33560	38556	33696	
678	0	29370	33569	38556	33674	
679	0	30009	33536	38554	33642	
680	0	30804	33560	38554	33660	
681	0	31444	33624	38564	33640	
682	0	32182	33688	38544	33626	
683	0	32679	33646	38538	33624	
684	0	32822	33844	38552	33620	
685	0	33476	33770	38546	33608	
686	0	34092	33690	38546	33599	
687	0	35062	33719	38572	33590	
688	0	35162	33658	38546	33582	
689	0	34964	33800	38527	33600	
690	0	34436	33798	38560	33604	
691	0	33947	33858	38546	33612	
692	0	33748	33875	38540	33642	
693	0	33400	33770	38580	33662	
694	0	33098	33840	38578	33658	
695	0	32840	33812	38572	33658	
696	0	32674	33740	38570	33655	
697	0	32512	33808	38564	33656	
698	0	32490	33746	38580	33668	
699	0	32436	33762	38560	33682	
700	0	32686	33773	38566	33698	
701	0	33412	33744	38572	33684	
702	0	33580	33798	38580	33673	
703	0	33326	33718	38583	33678	
704	0	33036	33682	38596	33682	
705	0	32882	33684	38596	33676	
706	0	32516	33596	38576	33668	
707	0	32296	33516	38572	33664	
708	0	32108	33616	38582	33655	
709	0	32052	33656	38566	33654	
710	0	32172	33754	38570	33676	
711	0	32646	33494	38565	33692	
712	0	32940	33552	38550	33700	
713	0	33135	33556	38539	33704	
714	0	33790	33704	38542	33722	
715	0	34744	33740	38564	33740	
716	0	34940	33710	38560	33788	
717	0	34312	33664	38558	33792	
718	0	34840	33772	38570	33796	
719	0	34672	33778	38556	33804	
720	0	33660	33724	38572	33809	
721	0	32772	33772	38582	33806	
722	0	31317	33570	38588	33812	
723	0	29730	33550	38584	33804	
724	0	28640	33724	38592	33780	
725	0	28142	33690	38607	33771	
726	0	28344	33652	38598	33743	
727	0	29020	33586	38598	33754	
728	0	30912	33614	38610	33734	
729	0	33026	33710	38596	33712	
730	0	33674	33816	38628	33684	
731	0	32813	33786	38620	33666	
732	0	31679	33744	38620	33650	
733	0	31882	33700	38628	33649	
734	0	32906	33769	38590	33652	
735	0	34328	33780	38648	33618	
736	0	35178	33848	38630	33641	
737	0	34958	33712	38632	33640	
738	0	34714	33692	38620	33646	
739	0	34592	33756	38628	33639	
740	0	34422	33743	38656	33666	
741	0	34346	33732	38608	33680	
742	0	34140	33742	38604	33696	
743	0	33531	33668	38641	33728	
744	0	33138	33728	38626	33740	
745	0	32924	33832	38620	33755	
746	0	32644	33762	38617	33787	
747	0	32370	33680	38620	33806	
748	0	32460	33600	38656	33808	
749	0	33258	33620	38636	33808	
750	0	33922	33690	38662	33784	
751	0	35232	33706	38641	33790	
752	0	35630	33736	38638	33788	
753	0	34370	33716	38632	33786	
754	0	32886	33679	38644	33751	
755	0	32186	33633	38636	33724	
756	0	33134	33694	38643	33700	
757	0	35020	33756	38615	33660	
758	0	32959	33782	38632	33639	
759	0	30465	33582	38582	33626	
760	0	28786	33596	38592	33600	
761	0	28136	33702	38560	33580	
762	0	28310	33594	38560	33564	
763	0	28401	33720	38560	33556	
764	0	29508	33816	38552	33544	
765	0	30924	33756	38550	33535	
766	0	31402	33636	38570	33526	
767	0	32346	33688	38552	33524	
768	0	32882	33900	38572	33524	
769	0	33142	34064	38574	33532	
770	0	33494	33824	38568	33536	
771	0	34050	33832	38578	33552	
772	0	34422	33930	38586	33575	
773	0	35468	33974	38570	33599	
774	0	35776	33801	38573	33590	
775	0	35764	33908	38574	33596	
776	0	34616	33898	38568	33644	
777	0	33742	33744	38618	33638	
778	0	35066	33828	38592	33676	
779	0	38356	33944	38596	33685	
780	0	39705	33896	38652	33696	
781	0	38016	33816	38626	33716	
782	0	35294	33792	38622	33728	
783	0	30450	33754	38624	33746	
784	0	26722	33630	38635	33760	
785	0	24930	33815	38638	33748	
786	0	24788	33736	38660	33762	
787	0	25168	33705	38668	33752	
788	0	25992	33738	38664	33756	
789	0	27416	33770	38676	33730	
790	0	29665	33752	38648	33730	
791	0	31158	33966	38656	33700	
792	0	33096	33988	38656	33704	
793	0	34616	33892	38662	33678	
794	0	35364	33998	38660	33680	
795	0	36292	33902	38663	33664	
796	0	37676	34005	38658	33652	
797	0	42092	34080	38632	33658	
798	0	40616	34052	38622	33648	
799	0	36630	33972	38622	33674	
800	0	34386	33892	38634	33664	
801	0	32529	33850	38607	33674	
802	0	32508	33932	38586	33676	
803	0	31684	33808	38586	33684	
804	0	33712	33961	38580	33696	
805	0	33794	33848	38584	33716	
806	0	31368	33800	38580	33734	
807	0	28800	33723	38566	33754	
808	0	27124	33672	38568	33782	
809	0	27494	33722	38563	33784	
810	0	27764	33724	38592	33814	
811	0	29876	33836	38588	33820	
812	0	32724	33816	38606	33832	
813	0	35733	33962	38624	33844	
814	0	39055	34088	38637	33837	
815	0	38572	34244	38656	33835	
816	0	35490	34054	38666	33818	
817	0	31809	34060	38662	33796	
818	0	29308	33688	38664	33778	
819	0	28446	33908	38692	33748	
820	0	28396	33846	38692	33720	
821	0	29564	33752	38688	33666	
822	0	30720	33772	38696	33660	
823	0	31866	33808	38680	33658	
824	0	33012	33742	38688	33606	
825	0	34248	33822	38684	33580	
826	0	36346	33932	38694	33562	
827	0	37904	33885	38706	33548	
828	0	37134	33828	38720	33556	
829	0	35634	33700	38692	33550	
830	0	34600	33743	38700	33568	
831	0	33205	33590	38706	33592	
832	0	32556	33640	38740	33618	
833	0	32332	33652	38728	33648	
834	0	32140	33436	38742	33684	
835	0	31393	33406	38764	33708	
836	0	31164	33436	38770	33696	
837	0	31280	33454	38784	33700	
838	0	31582	33460	38808	33724	
839	0	32026	33272	38804	33732	
840	0	34514	33244	38830	33762	
841	0	34786	33352	38840	33776	
842	0	33548	33380	38842	33800	
843	0	32016	33178	38826	33855	
844	0	31604	33200	38834	33868	
845	0	31580	33164	38826	33888	
846	0	31658	33126	38848	33924	
847	0	31820	33231	38872	33922	
848	0	32138	33184	38888	33918	
849	0	32740	33224	38898	33928	
850	0	33374	33092	38922	33890	
851	0	33664	33258	38940	33908	
852	0	33608	33276	38946	33912	
853	0	34348	33280	38940	33893	
854	0	33968	33294	38960	33886	
855	0	33280	33356	38960	33883	
856	0	32754	33298	38942	33868	
857	0	32710	33256	38960	33846	
858	0	33000	33482	38970	33824	
859	0	33544	33538	38960	33788	
860	0	33008	33596	38936	33796	
861	0	32536	33528	38928	33754	
862	0	33190	33572	38902	33762	
863	0	34024	33740	38870	33748	
864	0	34970	33681	38874	33712	
865	0	34722	33706	38830	33708	
866	0	35990	33798	38841	33678	
867	0	34982	33892	38824	33644	
868	0	31964	33648	38794	33646	
869	0	29606	33748	38774	33638	
870	0	28850	33760	38744	33642	
871	0	29052	33848	38748	33630	
872	0	29300	33848	38740	33607	
873	0	28624	33748	38724	33618	
874	0	28258	34014	38709	33640	
875	0	28727	34092	38734	33616	
876	0	29696	34120	38726	33588	
877	0	31084	34148	38696	33604	
878	0	31944	34152	38666	33572	
879	0	33280	34248	38684	33548	
880	0	34184	34326	38664	33530	
881	0	35160	34248	38671	33520	
882	0	35572	34400	38656	33496	
883	0	35594	34268	38604	33506	
884	0	35534	34516	38622	33496	
885	0	35338	34472	38600	33474	
886	0	35106	34560	38588	33470	
887	0	34806	34532	38564	33452	
888	0	34324	34330	38530	33432	
889	0	34504	34456	38509	33428	
890	0	35136	34460	38474	33398	
891	0	36226	34418	38457	33408	
892	0	34400	34348	38432	33416	
893	0	32192	34294	38429	33390	
894	0	31092	34170	38402	33404	
895	0	30564	34155	38372	33408	
896	0	30775	34058	38384	33402	
897	0	30919	34048	38400	33370	
898	0	31384	34048	38370	33396	
899	0	32190	34056	38360	33402	
900	0	31864	34104	38381	33398	
901	0	31914	33966	38369	33420	
902	0	32548	34032	38356	33410	
903	0	32490	34138	38342	33434	
904	0	32924	33996	38345	33410	
905	0	32527	34004	38336	33408	
906	0	32050	33892	38348	33396	
907	0	31680	33964	38372	33386	
908	0	31894	33948	38352	33360	
909	0	32344	34012	38336	33348	
910	0	32452	33838	38334	33330	
911	0	32678	33832	38329	33324	
912	0	33054	33962	38311	33286	
913	0	33240	33954	38332	33288	
914	0	33970	33808	38336	33272	
915	0	34832	33904	38310	33280	
916	0	35015	33924	38312	33290	
917	0	33812	33792	38320	33278	
918	0	33254	33819	38324	33290	
919	0	33938	33808	38306	33322	
920	0	33200	33768	38304	33332	
921	0	31714	33648	38296	33348	
922	0	31404	33684	38311	33375	
923	0	31136	33692	38335	33410	
924	0	31322	33690	38308	33440	
925	0	31780	33736	38320	33486	
926	0	32024	33552	38338	33506	
927	0	32308	33472	38364	33532	
928	0	33282	33718	38350	33578	
929	0	33961	33600	38376	33616	
930	0	35682	33778	38408	33596	
931	0	35854	33949	38416	33628	
932	0	34824	33940	38424	33650	
933	0	34276	33682	38417	33666	
934	0	34915	33769	38422	33687	
935	0	34300	33804	38410	33710	
936	0	31086	33732	38412	33720	
937	0	28318	33730	38422	33740	
938	0	27428	33576	38420	33738	
939	0	28452	33744	38400	33736	
940	0	30236	33612	38392	33792	
941	0	31376	33759	38394	33792	
942	0	32422	33820	38386	33804	
943	0	34620	33918	38400	33792	
944	0	34053	33872	38408	33832	
945	0	32458	33908	38423	33850	
946	0	31874	33848	38432	33870	
947	0	31996	33966	38452	33904	
948	0	32996	33904	38474	33924	
949	0	33916	34004	38500	33920	
950	0	33856	33980	38494	33924	
951	0	33618	33970	38506	33936	
952	0	33182	33942	38518	33956	
953	0	33050	34100	38496	33970	
954	0	33484	34048	38512	34004	
955	0	33928	33861	38520	34010	
956	0	34090	33966	38506	34024	
957	0	34070	33960	38500	34032	
958	0	34792	34008	38520	34041	
959	0	36292	34070	38471	34068	
960	0	35134	33952	38470	34048	
961	0	33062	33830	38444	34074	
962	0	31898	33696	38444	34068	
963	0	31392	33832	38442	34058	
964	0	30808	33796	38388	34086	
965	0	30344	33700	38392	34058	
966	0	31020	33740	38366	34048	
967	0	31614	33754	38383	34014	
968	0	31768	33588	38332	34004	
969	0	31425	33750	38370	33968	
970	0	32272	33742	38340	33932	
971	0	33368	33708	38340	33894	
972	0	33166	33654	38330	33860	
973	0	33010	33754	38343	33818	
974	0	32596	33721	38312	33792	
975	0	32444	33808	38305	33762	
976	0	32148	33712	38286	33712	
977	0	32286	33792	38300	33672	
978	0	32410	33700	38284	33648	
979	0	32902	33804	38284	33611	
980	0	33408	33728	38264	33576	
981	0	34586	33752	38250	33560	
982	0	34368	33764	38236	33516	
983	0	33424	33664	38254	33500	
984	0	32992	33752	38254	33468	
985	0	32860	33802	38249	33460	
986	0	32613	33702	38224	33444	
987	0	32466	33762	38222	33439	
988	0	32362	33800	38236	33398	
989	0	32453	33616	38210	33398	
990	0	34224	33704	38220	33384	
991	0	36204	33864	38226	33376	
992	0	35842	33876	38194	33388	
993	0	34088	33864	38214	33376	
994	0	32718	33896	38208	33364	
995	0	33366	33796	38200	33382	
996	0	35888	33964	38194	33392	
997	0	33850	33840	38200	33402	
998	0	30396	33956	38208	33396	
999	0	27604	33842	38204	33445	
1000	0	26101	33780	38192	33440	
1001	0	27198	33752	38232	33460	
1002	0	29510	33986	38232	33492	
1003	0	30378	34052	38204	33502	
1004	0	30804	34142	38210	33524	
1005	0	31550	34230	38206	33556	
1006	0	32437	34288	38216	33592	
1007	0	33009	34351	38248	33610	
1008	0	32796	34356	38240	33626	
1009	0	33648	34376	38234	33638	
1010	0	34466	34396	38246	33666	
1011	0	35104	34426	38272	33656	
1012	0	35172	34341	38276	33654	
1013	0	35297	34378	38292	33664	
1014	0	35250	34422	38292	33674	
1015	0	35264	34480	38288	33670	
1016	0	34842	34474	38280	33666	
1017	0	34264	34310	38302	33658	
1018	0	34310	34364	38280	33656	
1019	0	34248	34228	38277	33668	
1020	0	35764	34328	38260	33668	
1021	0	36464	34289	38288	33673	
1022	0	35404	34306	38282	33692	
1023	0	32532	34177	38306	33690	
1024	0	29540	34020	38306	33701	
1025	0	28290	33860	38312	33704	
1026	0	28258	33940	38328	33712	
1027	0	28516	33989	38341	33730	
1028	0	30864	33954	38364	33740	
1029	0	34652	34132	38364	33740	
1030	0	33900	34066	38418	33698	
1031	0	32548	33922	38432	33696	
1032	0	31254	34050	38460	33676	
1033	0	30316	33960	38478	33676	
1034	0	29610	33880	38490	33679	
1035	0	30684	33886	38512	33676	
1036	0	31744	33892	38516	33646	
1037	0	33404	34031	38528	33642	
1038	0	35988	33922	38532	33644	
1039	0	37512	34060	38560	33648	
1040	0	37764	34118	38528	33638	
1041	0	37792	34084	38544	33634	
1042	0	35476	33952	38544	33624	
1043	0	32644	33780	38552	33604	
1044	0	31072	33858	38540	33596	
1045	0	30265	33786	38556	33566	
1046	0	29646	33882	38544	33562	
1047	0	29766	33688	38554	33578	
1048	0	32408	33678	38554	33556	
1049	0	31682	33592	38544	33556	
1050	0	30128	33544	38536	33584	
1051	0	29208	33588	38536	33590	
1052	0	29546	33756	38534	33596	
1053	0	30840	33718	38550	33586	
1054	0	31868	33729	38552	33578	
1055	0	32568	33712	38532	33572	
1056	0	33360	33708	38518	33566	
1057	0	34176	33914	38528	33586	
1058	0	34630	33944	38502	33584	
1059	0	34442	34012	38485	33576	
1060	0	34104	34116	38488	33584	
1061	0	34194	33996	38528	33562	
1062	0	34568	34048	38510	33568	
1063	0	34978	34148	38514	33518	
1064	0	34714	34100	38527	33496	
1065	0	34388	34134	38514	33486	
1066	0	34052	34146	38518	33479	
1067	0	33704	34040	38538	33472	
1068	0	33564	34024	38528	33460	
1069	0	35112	34144	38522	33407	
1070	0	36396	34142	38504	33388	
1071	0	35348	34104	38508	33376	
1072	0	32770	34112	38506	33366	
1073	0	30940	34014	38494	33348	
1074	0	30897	34028	38496	33362	
1075	0	30030	34036	38501	33332	
1076	0	29892	33956	38528	33332	
1077	0	31492	34004	38522	33343	
1078	0	31809	34060	38520	33364	
1079	0	32506	33994	38490	33380	
1080	0	32951	34012	38484	33428	
1081	0	32340	34020	38488	33464	
1082	0	31003	33992	38508	33488	
1083	0	30592	34116	38508	33540	
1084	0	30996	34090	38508	33563	
1085	0	33323	34136	38538	33608	
1086	0	33482	34282	38522	33626	
1087	0	33684	34188	38554	33642	
1088	0	35300	34240	38544	33666	
1089	0	34620	34263	38554	33686	
1090	0	33690	34364	38583	33684	
1091	0	32618	34116	38575	33694	
1092	0	30442	34232	38547	33694	
1093	0	30372	34194	38570	33690	
1094	0	30438	34308	38572	33664	
1095	0	31110	34192	38558	33646	
1096	0	31940	34232	38562	33642	
1097	0	32304	34184	38564	33632	
1098	0	32392	34127	38572	33660	
1099	0	32824	34136	38574	33640	
1100	0	33408	34168	38546	33666	
1101	0	34522	34113	38558	33668	
1102	0	33936	34114	38540	33690	
1103	0	33198	34060	38568	33682	
1104	0	32776	34032	38566	33680	
1105	0	32922	34020	38604	33686	
1106	0	32998	34132	38580	33711	
1107	0	32958	33980	38570	33722	
1108	0	33978	34054	38586	33720	
1109	0	34580	34080	38589	33728	
1110	0	34530	34000	38602	33731	
1111	0	33828	33858	38578	33732	
1112	0	33256	34036	38560	33748	
1113	0	33264	33994	38568	33728	
1114	0	33506	34016	38548	33716	
1115	0	32538	33976	38554	33712	
1116	0	32295	34002	38556	33670	
1117	0	32506	33856	38528	33647	
1118	0	32290	33870	38497	33644	
1119	0	31948	33632	38490	33614	
1120	0	32000	33811	38500	33584	
1121	0	33106	33568	38490	33556	
1122	0	33794	33768	38460	33532	
1123	0	34136	33632	38466	33492	
1124	0	33978	33480	38466	33486	
1125	0	33780	33530	38440	33492	
1126	0	32824	33688	38424	33506	
1127	0	34818	33742	38440	33514	
1128	0	34966	33734	38412	33538	
1129	0	31861	33672	38419	33580	
1130	0	29006	33632	38412	33600	
1131	0	27773	33676	38408	33612	
1132	0	28043	33664	38410	33642	
1133	0	28398	33806	38404	33678	
1134	0	28544	33752	38380	33716	
1135	0	29660	33896	38380	33742	
1136	0	31234	33935	38372	33784	
1137	0	33295	34048	38360	33780	
1138	0	34966	34068	38351	33764	
1139	0	35150	34260	38354	33774	
1140	0	35104	34198	38327	33772	
1141	0	35150	34226	38324	33775	
1142	0	35618	34434	38314	33759	
1143	0	34704	34364	38298	33746	
1144	0	33734	34288	38276	33762	
1145	0	32924	34328	38268	33778	
1146	0	32124	34232	38260	33788	
1147	0	32111	34234	38236	33794	
1148	0	32798	34298	38234	33796	
1149	0	33312	34209	38232	33794	
1150	0	33712	34224	38224	33810	
1151	0	34417	34316	38248	33794	
1152	0	33690	34272	38256	33806	
1153	0	33248	34314	38248	33802	
1154	0	33504	34094	38250	33796	
1155	0	35170	34336	38248	33781	
1156	0	35816	34238	38220	33772	
1157	0	37756	34368	38272	33782	
1158	0	36670	34380	38238	33780	
1159	0	34036	34228	38232	33778	
1160	0	32052	34186	38242	33774	
1161	0	29668	34184	38226	33778	
1162	0	29022	34122	38234	33806	
1163	0	28676	34128	38220	33794	
1164	0	29060	34080	38210	33802	
1165	0	29900	34054	38196	33817	
1166	0	30888	34088	38218	33808	
1167	0	30848	34236	38208	33816	
1168	0	31000	34308	38206	33822	
1169	0	31004	34160	38216	33834	
1170	0	31800	34216	38216	33840	
1171	0	32700	34130	38216	33822	
1172	0	33436	34254	38230	33816	
1173	0	33178	34102	38216	33802	
1174	0	33440	34122	38224	33824	
1175	0	33362	34190	38254	33825	
1176	0	33248	34021	38256	33833	
1177	0	33084	33912	38268	33820	
1178	0	33015	33936	38293	33807	
1179	0	33410	33874	38318	33792	
1180	0	33960	33920	38308	33778	
1181	0	34114	33831	38324	33754	
1182	0	33424	33612	38328	33730	
1183	0	33192	33670	38346	33708	
1184	0	33172	33664	38355	33664	
1185	0	33301	33556	38352	33632	
1186	0	33584	33482	38368	33596	
1187	0	33668	33470	38364	33552	
1188	0	33472	33376	38404	33470	
1189	0	33656	33414	38400	33465	
1190	0	34524	33356	38372	33470	
1191	0	34265	33402	38390	33434	
1192	0	33808	33468	38416	33368	
1193	0	37160	33098	38418	33360	
1194	0	40290	33020	38446	33320	
1195	0	39104	33106	38459	33304	
1196	0	34680	33066	38432	33285	
1197	0	29639	32910	38444	33264	
1198	0	26464	32834	38482	33220	
1199	0	25304	32992	38480	33200	
1200	0	25212	32832	38478	33208	
1201	0	25404	33037	38482	33248	
1202	0	26540	33036	38508	33250	
1203	0	27826	32992	38492	33294	
1204	0	29096	33146	38488	33320	
1205	0	30968	33222	38482	33356	
1206	0	32124	33470	38506	33378	
1207	0	33000	33616	38524	33408	
1208	0	33963	33672	38533	33446	
1209	0	34672	33666	38584	33448	
1210	0	35604	33740	38612	33472	
1211	0	35820	33802	38602	33498	
1212	0	35910	33640	38614	33524	
1213	0	35896	33804	38613	33552	
1214	0	36148	33762	38626	33578	
1215	0	35887	33860	38612	33614	
1216	0	34968	33706	38598	33647	
1217	0	33916	33566	38617	33649	
1218	0	33250	33492	38604	33685	
1219	0	33373	33652	38604	33716	
1220	0	34054	33816	38596	33740	
1221	0	36506	33646	38576	33772	
1222	0	39770	33728	38588	33818	
1223	0	37623	33628	38596	33837	
1224	0	32614	33550	38592	33868	
1225	0	28997	33552	38610	33902	
1226	0	27279	33484	38614	33926	
1227	0	26820	33426	38609	33968	
1228	0	26892	33524	38606	34020	
1229	0	27840	33492	38620	34020	
1230	0	29554	33694	38612	34040	
1231	0	31126	33844	38609	34058	
1232	0	32446	34007	38620	34088	
1233	0	32860	33918	38624	34100	
1234	0	32868	33898	38622	34065	
1235	0	33228	34077	38592	34052	
1236	0	33708	34078	38590	34036	
1237	0	34561	34252	38590	33986	
1238	0	35520	34248	38580	33964	
1239	0	34710	34252	38566	33936	
1240	0	34238	34160	38540	33900	
1241	0	33720	34096	38516	33874	
1242	0	33314	34238	38512	33844	
1243	0	32434	34064	38528	33805	
1244	0	31788	34048	38484	33784	
1245	0	31480	34154	38451	33764	
1246	0	32072	34154	38418	33744	
1247	0	32510	33964	38424	33746	
1248	0	32717	33924	38431	33719	
1249	0	32164	33970	38420	33713	
1250	0	31810	33928	38451	33706	
1251	0	32196	33974	38448	33688	
1252	0	32672	33998	38460	33704	
1253	0	33178	33910	38438	33708	
1254	0	33498	34008	38464	33712	
1255	0	34000	33968	38454	33708	
1256	0	34674	34061	38444	33714	
1257	0	35228	34032	38440	33724	
1258	0	35399	34020	38460	33700	
1259	0	34993	33968	38442	33700	
1260	0	34255	33972	38456	33682	
1261	0	34506	34200	38450	33666	
1262	0	35304	34006	38448	33650	
1263	0	34778	34028	38466	33618	
1264	0	32922	33996	38464	33592	
1265	0	30900	33976	38482	33564	
1266	0	29264	33840	38484	33551	
1267	0	30117	33894	38470	33536	
1268	0	31136	33794	38476	33506	
1269	0	30568	33854	38496	33480	
1270	0	29868	33734	38481	33457	
1271	0	29748	33848	38498	33440	
1272	0	30378	33740	38482	33418	
1273	0	30870	33860	38488	33372	
1274	0	31168	33897	38478	33378	
1275	0	31761	33884	38459	33368	
1276	0	31918	33870	38464	33376	
1277	0	32076	33992	38452	33380	
1278	0	32698	33898	38447	33394	
1279	0	33056	34052	38419	33432	
1280	0	33610	34036	38444	33442	
1281	0	34964	34112	38424	33450	
1282	0	35532	34180	38432	33462	
1283	0	34858	34176	38437	33470	
1284	0	34002	34138	38439	33488	
1285	0	34112	34070	38444	33484	
1286	0	34370	34166	38438	33508	
1287	0	34518	34140	38428	33508	
1288	0	34384	34252	38444	33496	
1289	0	33578	34114	38426	33500	
1290	0	33542	34108	38434	33512	
1291	0	36352	34267	38454	33506	
1292	0	36876	34240	38472	33498	
1293	0	35264	34026	38450	33504	
1294	0	32969	34030	38480	33493	
1295	0	32112	33926	38496	33500	
1296	0	31580	33836	38486	33486	
1297	0	29738	33792	38490	33480	
1298	0	28340	33764	38494	33462	
1299	0	27454	33684	38536	33444	
1300	0	28324	33742	38550	33448	
1301	0	29802	33736	38580	33444	
1302	0	31490	33830	38574	33440	
1303	0	32088	33766	38580	33432	
1304	0	32908	33836	38596	33448	
1305	0	33180	33838	38614	33462	
1306	0	33397	33852	38654	33460	
1307	0	33154	33797	38660	33494	
1308	0	32898	33732	38662	33476	
1309	0	33004	33888	38662	33474	
1310	0	33588	33740	38668	33470	
1311	0	34904	33864	38676	33450	
1312	0	34378	33886	38660	33436	
1313	0	33242	33712	38662	33402	
1314	0	33052	33744	38676	33360	
1315	0	32844	33892	38662	33344	
1316	0	32808	33946	38690	33330	
1317	0	32224	33812	38681	33316	
1318	0	32226	33736	38716	33292	
1319	0	32558	33828	38700	33284	
1320	0	32898	34000	38692	33277	
1321	0	33370	33810	38692	33260	
1322	0	33618	33798	38690	33252	
1323	0	33486	33768	38702	33258	
1324	0	34490	33888	38716	33264	
1325	0	34448	33847	38736	33253	
1326	0	34000	33740	38750	33248	
1327	0	33314	33832	38768	33258	
1328	0	32776	33676	38774	33256	
1329	0	32454	33708	38792	33280	
1330	0	34980	33674	38802	33300	
1331	0	37512	33664	38830	33297	
1332	0	34928	33718	38844	33300	
1333	0	32050	33548	38855	33348	
1334	0	29176	33452	38854	33378	
1335	0	27692	33426	38864	33418	
1336	0	27176	33482	38864	33444	
1337	0	27118	33542	38872	33466	
1338	0	27924	33452	38892	33492	
1339	0	30266	33542	38905	33504	
1340	0	32746	33648	38905	33512	
1341	0	34196	33672	38916	33484	
1342	0	34396	33797	38912	33500	
1343	0	35440	33794	38896	33536	
1344	0	35236	33852	38898	33520	
1345	0	34992	33738	38912	33462	
1346	0	34270	33612	38885	33488	
1347	0	32572	33708	38884	33480	
1348	0	31492	33830	38860	33470	
1349	0	31580	33684	38832	33460	
1350	0	32902	33826	38806	33440	
1351	0	34323	33688	38824	33449	
1352	0	34820	33641	38800	33410	
1353	0	35308	33788	38792	33421	
1354	0	34632	33766	38788	33412	
1355	0	35296	33784	38778	33421	
1356	0	35960	33740	38740	33440	
1357	0	34374	33816	38752	33442	
1358	0	32924	33796	38762	33448	
1359	0	31756	33724	38756	33460	
1360	0	30584	33692	38748	33468	
1361	0	30272	33768	38736	33488	
1362	0	31872	33764	38754	33516	
1363	0	34032	33878	38781	33524	
1364	0	32730	33894	38789	33548	
1365	0	31414	33854	38776	33572	
1366	0	30518	33936	38794	33565	
1367	0	30194	33956	38842	33578	
1368	0	30398	33918	38862	33604	
1369	0	30728	34048	38836	33610	
1370	0	30772	34024	38872	33622	
1371	0	31078	34079	38912	33612	
1372	0	32004	34216	38905	33644	
1373	0	32160	34194	38904	33646	
1374	0	33090	34144	38919	33596	
1375	0	33094	34132	38912	33577	
1376	0	32664	34150	38939	33540	
1377	0	32934	34086	38928	33508	
1378	0	35764	34186	38914	33468	
1379	0	38554	34116	38894	33464	
1380	0	37004	34126	38913	33399	
1381	0	34396	34116	38912	33342	
1382	0	32288	34088	38872	33352	
1383	0	31215	33868	38875	33322	
1384	0	30440	33780	38872	33278	
1385	0	30146	33826	38854	33262	
1386	0	31758	33918	38854	33242	
1387	0	32788	33850	38840	33226	
1388	0	33268	33975	38814	33242	
1389	0	33754	33860	38816	33232	
1390	0	33824	34050	38822	33232	
1391	0	33296	33922	38844	33239	
1392	0	32786	33962	38836	33248	
1393	0	33304	33912	38842	33260	
1394	0	32516	33904	38804	33296	
1395	0	32644	33940	38830	33296	
1396	0	32420	33999	38832	33298	
1397	0	32642	34068	38852	33320	
1398	0	33560	34068	38822	33330	
1399	0	33920	34120	38836	33332	
1400	0	33342	34092	38832	33352	
1401	0	34202	34078	38852	33342	
1402	0	36224	34272	38860	33340	
1403	0	37524	34136	38860	33312	
1404	0	36647	34140	38848	33308	
1405	0	33900	33880	38852	33286	
1406	0	31764	33840	38838	33288	
1407	0	30597	33928	38868	33296	
1408	0	29604	33836	38838	33274	
1409	0	28558	33892	38812	33272	
1410	0	28829	33868	38811	33280	
1411	0	29412	33811	38796	33263	
1412	0	29235	33864	38794	33266	
1413	0	29442	33740	38778	33268	
1414	0	29880	33970	38772	33295	
1415	0	31808	34052	38755	33314	
1416	0	32454	33932	38728	33356	
1417	0	32428	33926	38720	33398	
1418	0	36274	34153	38704	33440	
1419	0	38312	34138	38728	33480	
1420	0	36150	34140	38724	33508	
1421	0	33410	34192	38710	33552	
1422	0	31208	34114	38703	33602	
1423	0	29952	34114	38720	33636	
1424	0	29552	34160	38708	33674	
1425	0	29708	34103	38728	33686	
1426	0	31008	34126	38720	33712	
1427	0	32320	34236	38752	33754	
1428	0	33084	34159	38756	33768	
1429	0	33244	34180	38776	33808	
1430	0	33770	34178	38792	33830	
1431	0	35363	34274	38788	33856	
1432	0	35662	34104	38794	33886	
1433	0	35962	34200	38828	33870	
1434	0	35777	34154	38838	33870	
1435	0	35308	34096	38844	33868	
1436	0	34864	34140	38848	33836	
1437	0	34322	33978	38868	33806	
1438	0	33550	33944	38856	33766	
1439	0	33000	33904	38874	33684	
1440	0	32788	33900	38858	33612	
1441	0	32894	33818	38830	33572	
1442	0	33168	33672	38822	33526	
1443	0	32892	33694	38822	33460	
1444	0	32298	33608	38812	33374	
1445	0	31331	33562	38816	33336	
1446	0	31930	33674	38790	33288	
1447	0	32022	33508	38792	33248	
1448	0	32022	33520	38764	33208	
1449	0	30934	33472	38796	33200	
1450	0	30280	33586	38774	33192	
1451	0	29976	33496	38773	33200	
1452	0	30620	33562	38794	33176	
1453	0	32944	33632	38802	33189	
1454	0	35786	33712	38798	33204	
1455	0	34804	33800	38813	33202	
1456	0	33013	33714	38833	33208	
1457	0	32664	33740	38860	33232	
1458	0	32476	33822	38868	33282	
1459	0	33184	33868	38896	33296	
1460	0	34759	33874	38874	33338	
1461	0	36216	33894	38906	33372	
1462	0	35204	33858	38920	33382	
1463	0	32954	33892	38954	33384	
1464	0	30448	33853	38948	33410	
1465	0	29600	33856	38954	33432	
1466	0	29272	33808	38972	33460	
1467	0	28786	33792	38953	33478	
1468	0	29044	33898	38968	33504	
1469	0	30505	33932	38960	33506	
1470	0	32015	34034	38954	33520	
1471	0	33600	34070	38955	33520	
1472	0	32673	33860	38940	33528	
1473	0	32300	33966	38918	33524	
1474	0	33810	33962	38934	33538	
1475	0	34392	33993	38916	33526	
1476	0	34766	33852	38900	33562	
1477	0	34680	33992	38884	33588	
1478	0	35144	33956	38884	33589	
1479	0	35098	34004	38844	33605	
1480	0	34444	33956	38856	33628	
1481	0	33184	34020	38837	33652	
1482	0	32168	33968	38828	33664	
1483	0	33824	33920	38828	33682	
1484	0	36324	34095	38816	33716	
1485	0	34872	34012	38818	33756	
1486	0	33523	33836	38816	33806	
1487	0	31497	33731	38836	33842	
1488	0	30900	33796	38852	33864	
1489	0	28992	33664	38848	33890	
1490	0	28420	33764	38850	33934	
1491	0	28840	33706	38852	33946	
1492	0	31012	33830	38848	33954	
1493	0	32191	33738	38848	33967	
1494	0	32810	33862	38856	33964	
1495	0	33008	33936	38856	33964	
1496	0	33362	33806	38852	33924	
1497	0	33364	33868	38830	33902	
1498	0	33946	33876	38832	33847	
1499	0	34102	33906	38810	33808	
1500	0	34063	34028	38768	33736	
1501	0	34348	34046	38748	33648	
1502	0	33938	34028	38690	33594	
1503	0	35849	34099	38680	33504	
1504	0	38978	34124	38642	33418	
1505	0	37128	34132	38604	33332	
1506	0	33618	34100	38604	33240	
1507	0	31264	34110	38578	33164	
1508	0	30244	34112	38576	33100	
1509	0	29832	34052	38552	33048	
1510	0	29999	34039	38528	33008	
1511	0	29986	34138	38508	33002	
1512	0	31488	34188	38504	32972	
1513	0	33032	34292	38474	32976	
1514	0	34160	34337	38492	32996	
1515	0	32640	34274	38506	33008	
1516	0	30956	34214	38510	33044	
1517	0	30452	34308	38515	33072	
1518	0	31772	34452	38538	33120	
1519	0	32364	34552	38584	33168	
1520	0	31622	34390	38584	33215	
1521	0	30904	34518	38612	33264	
1522	0	30460	34624	38634	33306	
1523	0	31134	34536	38644	33356	
1524	0	31244	34544	38660	33415	
1525	0	32512	34762	38682	33448	
1526	0	37348	34860	38676	33494	
1527	0	40448	34746	38684	33532	
1528	0	39724	34762	38700	33546	
1529	0	36664	34828	38682	33562	
1530	0	33384	34670	38676	33572	
1531	0	31396	34488	38708	33580	
1532	0	30120	34316	38716	33546	
1533	0	29926	34442	38695	33522	
1534	0	29986	34480	38712	33504	
1535	0	30696	34384	38694	33474	
1536	0	30304	34418	38694	33462	
1537	0	30616	34388	38716	33441	
1538	0	31616	34464	38720	33448	
1539	0	32948	34432	38692	33456	
1540	0	33418	34374	38674	33447	
1541	0	33904	34322	38660	33490	
1542	0	34220	34388	38642	33498	
1543	0	33572	34308	38636	33542	
1544	0	33508	34380	38640	33568	
1545	0	33582	34346	38636	33620	
1546	0	32376	34162	38630	33664	
1547	0	31658	34252	38640	33709	
1548	0	32288	34248	38670	33748	
1549	0	33268	34338	38663	33788	
1550	0	33840	34232	38700	33838	
1551	0	33984	34164	38714	33878	
1552	0	35826	34252	38708	33918	
1553	0	34735	34140	38732	33954	
1554	0	35264	34293	38754	33992	
1555	0	34136	34200	38772	34048	
1556	0	31384	34144	38784	34080	
1557	0	30166	33972	38810	34100	
1558	0	29991	34000	38818	34122	
1559	0	30715	34018	38860	34121	
1560	0	31616	34138	38868	34112	
1561	0	33768	34066	38872	34116	
1562	0	35917	34164	38850	34096	
1563	0	37346	34022	38862	34084	
1564	0	35212	34112	38850	34058	
1565	0	32183	33946	38856	34042	
1566	0	30906	33908	38858	34012	
1567	0	30138	34000	38865	33993	
1568	0	29920	33868	38836	33968	
1569	0	31151	33968	38868	33956	
1570	0	34579	34144	38868	33932	
1571	0	36128	34201	38864	33905	
1572	0	35500	34208	38852	33909	
1573	0	32708	34082	38854	33910	
1574	0	30143	33864	38866	33920	
1575	0	28152	33908	38852	33952	
1576	0	26910	33844	38878	33977	
1577	0	26772	34040	38886	34000	
1578	0	28078	34052	38871	34026	
1579	0	29900	34088	38900	34050	
1580	0	31412	34106	38920	34022	
1581	0	30935	34168	38938	34052	
1582	0	32168	34272	38944	34064	
1583	0	32982	34336	38938	34048	
1584	0	33983	34336	38944	34058	
1585	0	34832	34426	38940	34020	
1586	0	36101	34628	38948	33992	
1587	0	37658	34570	38944	33939	
1588	0	39352	34688	38898	33922	
1589	0	39632	34716	38896	33825	
1590	0	37838	34622	38880	33768	
1591	0	36162	34570	38866	33668	
1592	0	35198	34572	38832	33554	
1593	0	34862	34580	38832	33450	
1594	0	34176	34480	38824	33337	
1595	0	33437	34432	38746	33256	
1596	0	32042	34490	38732	33178	
1597	0	29716	34382	38664	33094	
1598	0	29456	34228	38644	33049	
1599	0	31266	34332	38614	33000	
1600	0	31326	34296	38580	32981	
1601	0	31556	34250	38508	32992	
1602	0	31822	34244	38522	32990	
1603	0	30360	34162	38505	33008	
1604	0	29408	34157	38438	33060	
1605	0	29592	34198	38430	33122	
1606	0	29340	34164	38424	33198	
1607	0	29482	34264	38436	33274	
1608	0	30120	34202	38434	33364	
1609	0	29788	34336	38436	33442	
1610	0	31042	34412	38432	33516	
1611	0	32564	34244	38440	33608	
1612	0	33694	34441	38453	33680	
1613	0	34588	34516	38432	33718	
1614	0	36045	34698	38476	33736	
1615	0	36962	34572	38470	33777	
1616	0	36892	34796	38484	33796	
1617	0	35868	34750	38464	33820	
1618	0	35606	34704	38480	33812	
1619	0	38101	34816	38472	33792	
1620	0	37202	34673	38476	33764	
1621	0	34432	34656	38496	33744	
1622	0	32408	34518	38448	33738	
1623	0	30920	34630	38434	33684	
1624	0	29782	34548	38424	33646	
1625	0	29040	34488	38474	33624	
1626	0	29498	34594	38432	33608	
1627	0	30732	34586	38422	33593	
1628	0	31806	34634	38396	33624	
1629	0	31892	34585	38410	33588	
1630	0	31844	34652	38394	33653	
1631	0	33962	34658	38374	33672	
1632	0	34528	34600	38384	33706	
1633	0	32162	34758	38378	33730	
1634	0	30646	34658	38384	33788	
1635	0	31208	34732	38400	33802	
1636	0	32202	34760	38400	33824	
1637	0	32598	34864	38422	33840	
1638	0	32856	34704	38446	33868	
1639	0	34979	34774	38440	33898	
1640	0	36574	34938	38462	33896	
1641	0	37044	34948	38470	33900	
1642	0	35528	35016	38474	33904	
1643	0	34087	34876	38480	33920	
1644	0	32833	34856	38485	33931	
1645	0	31543	34548	38500	33960	
1646	0	31000	34543	38526	33958	
1647	0	31208	34564	38532	33972	
1648	0	32665	34640	38538	33992	
1649	0	33575	34628	38560	33984	
1650	0	34148	34606	38580	34006	
1651	0	34222	34477	38580	34018	
1652	0	32131	34328	38592	34007	
1653	0	30744	34471	38606	34006	
1654	0	29476	34380	38600	33998	
1655	0	27602	34176	38614	34000	
1656	0	27630	34360	38614	34004	
1657	0	28232	34244	38641	33994	
1658	0	31306	34330	38638	33984	
1659	0	33590	34372	38617	33990	
1660	0	35904	34504	38596	33996	
1661	0	38504	34476	38580	34008	
1662	0	38754	34484	38590	34008	
1663	0	36986	34350	38592	34011	
1664	0	33766	34312	38601	34010	
1665	0	32038	34270	38560	33988	
1666	0	30329	34182	38564	33992	
1667	0	28908	34240	38560	34008	
1668	0	29340	34380	38560	34018	
1669	0	31434	34320	38580	34026	
1670	0	33156	34508	38596	34030	
1671	0	33218	34476	38604	34052	
1672	0	31756	34476	38604	34048	
1673	0	31576	34404	38612	34059	
1674	0	32188	34380	38604	34058	
1675	0	32324	34328	38650	34036	
1676	0	32620	34368	38641	34008	
1677	0	33027	34374	38650	33974	
1678	0	34234	34432	38648	33948	
1679	0	35294	34523	38672	33908	
1680	0	35374	34434	38668	33890	
1681	0	34582	34540	38668	33860	
1682	0	34060	34510	38664	33838	
1683	0	34964	34535	38652	33826	
1684	0	36790	34580	38660	33812	
1685	0	35681	34292	38666	33814	
1686	0	33766	34297	38640	33828	
1687	0	32332	34198	38658	33834	
1688	0	33080	34352	38646	33860	
1689	0	31288	34328	38648	33888	
1690	0	30372	34406	38641	33890	
1691	0	29854	34232	38624	33914	
1692	0	28736	34258	38620	33910	
1693	0	28392	34262	38618	33916	
1694	0	28640	34394	38640	33908	
1695	0	28929	34434	38636	33892	
1696	0	30426	34468	38634	33856	
1697	0	31863	34398	38648	33812	
1698	0	32309	34548	38676	33780	
1699	0	33655	34668	38646	33740	
1700	0	34912	34758	38644	33679	
1701	0	35360	34724	38648	33642	
1702	0	39848	34764	38641	33578	
1703	0	40744	34818	38604	33536	
1704	0	38028	34850	38612	33487	
1705	0	34784	34683	38588	33446	
1706	0	34294	34762	38572	33416	
1707	0	35864	34742	38540	33388	
1708	0	33126	34692	38512	33380	
1709	0	30719	34642	38528	33377	
1710	0	29432	34604	38532	33368	
1711	0	29260	34698	38510	33386	
1712	0	28252	34784	38548	33400	
1713	0	26654	34664	38508	33438	
1714	0	27152	34672	38516	33452	
1715	0	28890	34800	38534	33487	
1716	0	29404	34858	38564	33512	
1717	0	30334	34928	38572	33544	
1718	0	31392	34906	38575	33576	
1719	0	32749	35124	38568	33624	
1720	0	34148	35044	38575	33670	
1721	0	35236	35050	38594	33688	
1722	0	35042	35030	38600	33692	
1723	0	35060	35130	38592	33720	
1724	0	35824	35052	38598	33730	
1725	0	35646	34932	38596	33736	
1726	0	35122	34953	38612	33730	
1727	0	35954	34888	38583	33752	
1728	0	37938	34949	38596	33736	
1729	0	38080	34924	38606	33752	
1730	0	34816	34666	38610	33792	
1731	0	32768	34575	38612	33808	
1732	0	33914	34572	38604	33853	
1733	0	33160	34498	38609	33858	
1734	0	32684	34654	38617	33924	
1735	0	35478	34690	38640	33964	
1736	0	37796	34770	38640	34028	
1737	0	34405	34556	38684	34056	
1738	0	28528	34516	38702	34092	
1739	0	23596	34418	38734	34117	
1740	0	21304	34400	38742	34132	
1741	0	21428	34438	38761	34151	
1742	0	23709	34642	38794	34148	
1743	0	26728	34666	38810	34152	
1744	0	29796	34696	38814	34138	
1745	0	33428	34802	38820	34108	
1746	0	36750	35010	38818	34079	
1747	0	37358	34930	38798	34065	
1748	0	36084	34921	38784	34024	
1749	0	35889	34910	38784	33968	
1750	0	36114	34904	38740	33932	
1751	0	36396	34962	38692	33900	
1752	0	35662	34772	38668	33854	
1753	0	35422	34720	38668	33828	
1754	0	36416	34698	38646	33794	
1755	0	36312	34730	38642	33794	
1756	0	34408	34578	38614	33790	
1757	0	33164	34748	38614	33800	
1758	0	34212	34588	38590	33812	
1759	0	37120	34572	38598	33816	
1760	0	36646	34692	38572	33827	
1761	0	33542	34535	38568	33860	
1762	0	30776	34466	38600	33879	
1763	0	30664	34510	38624	33876	
1764	0	31108	34588	38646	33892	
1765	0	30959	34533	38621	33912	
1766	0	30279	34576	38658	33910	
1767	0	30895	34702	38684	33910	
1768	0	37108	34888	38660	33892	
1769	0	31038	34800	38682	33848	
1770	0	24768	34612	38690	33828	
1771	0	21621	34693	38692	33786	
1772	0	22132	34628	38700	33748	
1773	0	24090	34796	38684	33696	
1774	0	28032	34748	38672	33624	
1775	0	32232	34950	38674	33564	
1776	0	35850	35100	38662	33504	
1777	0	38652	35204	38656	33468	
1778	0	40242	35074	38650	33424	
1779	0	39088	35212	38608	33392	
1780	0	37784	35064	38578	33362	
1781	0	36616	35130	38544	33368	
1782	0	36260	35060	38556	33346	
1783	0	35829	34892	38528	33349	
1784	0	34969	34962	38528	33348	
1785	0	34028	35046	38482	33376	
1786	0	35856	34910	38453	33402	
1787	0	39812	35164	38412	33414	
1788	0	38754	35188	38432	33468	
1789	0	35300	35018	38416	33508	
1790	0	32999	35062	38412	33516	
1791	0	33440	35162	38440	33525	
1792	0	33740	34934	38426	33544	
1793	0	30368	35004	38427	33558	
1794	0	27032	34916	38432	33552	
1795	0	26364	34870	38466	33544	
1796	0	29548	34884	38476	33556	
1797	0	27519	34940	38472	33524	
1798	0	25968	34848	38496	33488	
1799	0	26210	34818	38496	33462	
1800	0	26450	34810	38531	33456	
1801	0	26983	34744	38528	33452	
1802	0	29446	34740	38554	33470	
1803	0	31956	34836	38591	33522	
1804	0	34218	34788	38588	33568	
1805	0	34886	34792	38608	33677	
1806	0	35924	34886	38666	33772	
1807	0	36808	34936	38682	33866	
1808	0	35480	34828	38732	33960	
1809	0	34276	34808	38752	34070	
1810	0	34202	34816	38768	34148	
1811	0	33992	34894	38784	34232	
1812	0	35024	34958	38794	34266	
1813	0	35826	35074	38800	34298	
1814	0	37162	34985	38806	34324	
1815	0	41266	35160	38772	34288	
1816	0	43236	35238	38784	34258	
1817	0	41096	35290	38776	34206	
1818	0	38762	35166	38754	34118	
1819	0	36516	35236	38728	34014	
1820	0	32028	34996	38698	33898	
1821	0	25160	34912	38656	33792	
1822	0	20896	35136	38650	33676	
1823	0	20398	35212	38616	33568	
1824	0	20636	35276	38570	33480	
1825	0	21520	35200	38556	33403	
1826	0	26200	35312	38544	33352	
1827	0	30128	35256	38504	33300	
1828	0	31636	35380	38496	33286	
1829	0	33424	35386	38496	33304	
1830	0	34058	35252	38472	33314	
1831	0	34615	35200	38456	33362	
1832	0	35176	35208	38444	33430	
1833	0	35446	35152	38432	33480	
1834	0	35610	35388	38434	33568	
1835	0	36458	35320	38424	33631	
1836	0	38158	35420	38432	33700	
1837	0	41088	35408	38441	33766	
1838	0	40522	35398	38420	33833	
1839	0	36830	35220	38431	33872	
1840	0	32816	35182	38402	33896	
1841	0	31566	35138	38414	33940	
1842	0	34520	35140	38394	33992	
1843	0	33844	35200	38420	33960	
1844	0	33260	35106	38404	33978	
1845	0	35262	35132	38429	33970	
1846	0	34154	35234	38420	33968	
1847	0	33559	35226	38426	33930	
1848	0	34315	35316	38388	33946	
1849	0	36284	35415	38402	33874	
1850	0	33376	35372	38400	33854	
1851	0	28899	35333	38406	33814	
1852	0	25026	35104	38444	33780	
1853	0	24197	35314	38453	33728	
1854	0	23132	35194	38426	33704	
1855	0	23973	35372	38410	33706	
1856	0	26944	35280	38393	33722	
1857	0	29794	35340	38376	33734	
1858	0	32782	35252	38408	33712	
1859	0	32444	35330	38422	33728	
1860	0	32288	35202	38392	33820	
1861	0	34676	35374	38404	33880	
1862	0	39150	35362	38394	34006	
1863	0	39906	35444	38402	34064	
1864	0	37000	35464	38430	34172	
1865	0	36616	35300	38420	34282	
1866	0	38572	35408	38449	34382	
1867	0	34084	35206	38446	34458	
1868	0	30396	35432	38480	34506	
1869	0	29215	35370	38485	34534	
1870	0	28110	35404	38490	34550	
1871	0	27311	35422	38514	34520	
1872	0	27380	35456	38514	34484	
1873	0	30252	35502	38524	34432	
1874	0	32836	35500	38503	34348	
1875	0	35590	35538	38490	34239	
1876	0	39396	35610	38498	34138	
1877	0	44004	35632	38490	34012	
1878	0	39802	35712	38452	33908	
1879	0	35092	35384	38404	33784	
1880	0	34156	35516	38368	33686	
1881	0	34156	35476	38360	33592	
1882	0	31782	35467	38320	33510	
1883	0	30102	35466	38306	33416	
1884	0	29140	35352	38292	33348	
1885	0	29076	35446	38276	33280	
1886	0	29080	35592	38276	33258	
1887	0	28848	35466	38280	33224	
1888	0	29086	35328	38258	33228	
1889	0	30569	35420	38304	33224	
1890	0	31944	35438	38308	33244	
1891	0	34242	35428	38288	33272	
1892	0	33668	35540	38298	33317	
1893	0	32714	35432	38320	33360	
1894	0	31255	35398	38338	33440	
1895	0	31138	35546	38360	33494	
1896	0	35632	35466	38356	33538	
1897	0	36894	35564	38407	33544	
1898	0	35874	35414	38421	33592	
1899	0	34434	35520	38428	33632	
1900	0	33038	35328	38454	33672	
1901	0	33883	35476	38452	33690	
1902	0	39244	35752	38446	33704	
1903	0	38358	35522	38438	33736	
1904	0	34560	35408	38464	33740	
1905	0	30669	35448	38474	33718	
1906	0	28578	35364	38490	33710	
1907	0	28370	35226	38476	33692	
1908	0	28093	35344	38480	33674	
1909	0	29558	35288	38499	33682	
1910	0	30142	35218	38508	33692	
1911	0	31100	35298	38492	33696	
1912	0	32964	35370	38496	33707	
1913	0	34048	35280	38504	33740	
1914	0	33484	35394	38508	33773	
1915	0	33002	35360	38500	33832	
1916	0	35296	35300	38504	33904	
1917	0	38160	35392	38488	33968	
1918	0	39340	35534	38472	34019	
1919	0	37592	35420	38460	34090	
1920	0	34532	35442	38448	34158	
1921	0	30322	35387	38444	34177	
1922	0	26978	35364	38448	34234	
1923	0	26452	35428	38466	34246	
1924	0	26274	35456	38464	34267	
1925	0	27586	35584	38460	34270	
1926	0	27598	35644	38480	34262	
1927	0	28208	35616	38454	34250	
1928	0	30848	35555	38453	34213	
1929	0	31282	35642	38430	34176	
1930	0	34510	35744	38408	34164	
1931	0	38721	35676	38368	34166	
1932	0	40308	35860	38349	34148	
1933	0	39874	35828	38316	34134	
1934	0	41421	35842	38324	34114	
1935	0	43606	35956	38304	34090	
1936	0	37352	35712	38258	34092	
1937	0	31492	35612	38248	34093	
1938	0	27809	35482	38218	34092	
1939	0	26380	35520	38186	34102	
1940	0	29628	35574	38190	34112	
1941	0	31048	35492	38148	34111	
1942	0	29616	35594	38178	34094	
1943	0	28950	35505	38164	34104	
1944	0	28231	35536	38170	34098	
1945	0	29018	35492	38160	34124	
1946	0	28980	35620	38156	34128	
1947	0	30820	35650	38146	34146	
1948	0	31146	35760	38158	34176	
1949	0	30712	35799	38160	34209	
1950	0	32456	35882	38168	34240	
1951	0	34300	35792	38171	34264	
1952	0	35338	35972	38192	34267	
1953	0	36328	35880	38202	34272	
1954	0	35620	35942	38198	34280	
1955	0	34808	35858	38180	34269	
1956	0	35122	35880	38176	34262	
1957	0	34112	35900	38156	34244	
1958	0	35356	35832	38137	34192	
1959	0	34958	35952	38112	34140	
1960	0	33604	35788	38090	34072	
1961	0	33506	35778	38084	34014	
1962	0	38716	36020	38042	33948	
1963	0	41352	35935	38020	33876	
1964	0	40310	35869	37960	33824	
1965	0	35410	35688	37938	33760	
1966	0	33563	35812	37925	33718	
1967	0	30543	35752	37880	33694	
1968	0	26736	35912	37847	33672	
1969	0	25170	35847	37814	33628	
1970	0	24260	36088	37848	33620	
1971	0	23788	36130	37829	33588	
1972	0	23735	36175	37829	33580	
1973	0	26830	36238	37809	33592	
1974	0	29374	36254	37802	33615	
1975	0	31050	36296	37828	33610	
1976	0	33208	36332	37804	33640	
1977	0	35248	36394	37818	33696	
1978	0	38060	36540	37858	33732	
1979	0	39672	36540	37868	33756	
1980	0	39258	36550	37872	33804	
1981	0	40904	36492	37860	33855	
1982	0	41876	36602	37859	33910	
1983	0	47254	36440	37860	33940	
1984	0	39968	36338	37836	34000	
1985	0	29780	36185	37830	34028	
1986	0	21920	35956	37824	34056	
1987	0	18861	35802	37786	34089	
1988	0	19098	35870	37784	34124	
1989	0	23125	35894	37824	34158	
1990	0	27337	35922	37804	34176	
1991	0	30970	35898	37828	34202	
1992	0	30988	35886	37794	34228	
1993	0	30730	35916	37784	34246	
1994	0	31552	35920	37786	34260	
1995	0	35200	35982	37804	34268	
1996	0	44700	36291	37834	34236	
1997	0	46602	36120	37846	34256	
1998	0	43656	36294	37876	34244	
1999	0	38156	35956	37896	34214	
2000	0	37386	36032	37926	34196	
2001	0	33450	36024	37980	34183	
2002	0	29828	35912	38000	34168	
2003	0	28066	35992	38012	34176	
2004	0	26348	36108	38036	34172	
2005	0	26746	36044	38071	34178	
2006	0	25824	36068	38102	34176	
2007	0	26661	36003	38128	34194	
2008	0	28463	36036	38160	34225	
2009	0	29732	36092	38168	34252	
2010	0	31502	35888	38164	34276	
2011	0	34400	36162	38170	34280	
2012	0	37630	36114	38171	34324	
2013	0	37056	35968	38132	34325	
2014	0	36640	35978	38116	34348	
2015	0	35232	35916	38094	34356	
2016	0	33966	36084	38088	34332	
2017	0	35072	36016	38081	34336	
2018	0	40504	36076	38056	34307	
2019	0	43670	36174	38044	34276	
2020	0	38236	36110	38020	34258	
2021	0	31302	35918	37991	34205	
2022	0	27236	36028	37972	34176	
2023	0	29076	35968	37978	34120	
2024	0	29104	36190	37976	34080	
2025	0	27848	36153	37944	34018	
2026	0	26752	36184	37925	34024	
2027	0	29948	36322	37918	34008	
2028	0	32530	36454	37926	34008	
2029	0	33172	36456	37932	34014	
2030	0	33782	36544	37900	34026	
2031	0	32354	36518	37888	34048	
2032	0	32416	36608	37890	34060	
2033	0	30222	36708	37878	34084	
2034	0	30222	36633	37868	34084	
2035	0	29768	36587	37828	34092	
2036	0	29428	36736	37814	34102	
2037	0	30512	36738	37792	34104	
2038	0	32456	36828	37752	34110	
2039	0	33448	36730	37758	34124	
2040	0	35138	36740	37710	34112	
2041	0	36892	36666	37700	34104	
2042	0	39438	36704	37656	34126	
2043	0	39696	36768	37594	34120	
2044	0	36559	36676	37563	34116	
2045	0	33850	36576	37556	34118	
2046	0	36163	36610	37518	34108	
2047	0	38548	36570	37485	34108	
2048	0	35416	36532	37468	34100	
2049	0	32730	36429	37460	34116	
2050	0	29602	36576	37420	34104	
2051	0	29892	36684	37410	34096	
2052	0	38584	36850	37418	34120	
2053	0	43668	37151	37424	34148	
2054	0	34976	36682	37422	34148	
2055	0	27150	36706	37452	34172	
2056	0	18993	36834	37488	34180	
2057	0	15448	36796	37496	34208	
2058	0	15606	36790	37530	34214	
2059	0	21520	36708	37544	34240	
2060	0	25744	37018	37608	34254	
2061	0	29340	37008	37632	34292	
2062	0	31796	36912	37672	34324	
2063	0	34536	36812	37670	34348	
2064	0	38928	36912	37710	34420	
2065	0	40064	36868	37720	34432	
2066	0	42580	36896	37744	34452	
2067	0	44232	37096	37732	34506	
2068	0	43936	36996	37708	34516	
2069	0	41542	36732	37719	34511	
2070	0	36036	36456	37712	34528	
2071	0	31460	36426	37694	34536	
2072	0	29438	36456	37668	34562	
2073	0	33536	36460	37678	34542	
2074	0	33714	36364	37676	34522	
2075	0	29776	36460	37676	34500	
2076	0	27130	36434	37704	34468	
2077	0	25964	36338	37720	34452	
2078	0	25836	36325	37764	34426	
2079	0	26969	36296	37790	34416	
2080	0	30030	36320	37802	34378	
2081	0	32714	36347	37844	34384	
2082	0	35920	36508	37868	34372	
2083	0	39680	36618	37888	34344	
2084	0	40314	36520	37908	34336	
2085	0	40608	36497	37913	34306	
2086	0	40030	36478	37918	34282	
2087	0	34968	36240	37948	34280	
2088	0	29422	36295	37932	34244	
2089	0	26664	36310	37934	34226	
2090	0	26470	36401	37932	34226	
2091	0	27478	36298	37916	34246	
2092	0	29832	36384	37888	34219	
2093	0	32018	36446	37874	34235	
2094	0	33388	36402	37832	34242	
2095	0	32620	36401	37800	34207	
2096	0	33700	36518	37772	34172	
2097	0	35774	36534	37740	34132	
2098	0	37200	36642	37726	34092	
2099	0	41084	36780	37722	34046	
2100	0	41858	37016	37680	33986	
2101	0	38180	36906	37608	33940	
2102	0	35344	36884	37590	33916	
2103	0	31055	37012	37531	33874	
2104	0	26826	36834	37509	33864	
2105	0	23308	36837	37482	33866	
2106	0	22085	36954	37444	33860	
2107	0	22692	36998	37412	33869	
2108	0	24800	37111	37424	33874	
2109	0	28896	37054	37416	33924	
2110	0	35676	37162	37400	33952	
2111	0	39584	37288	37396	33980	
2112	0	40532	37312	37364	34024	
2113	0	36186	37274	37378	34074	
2114	0	32018	37324	37376	34117	
2115	0	30090	37324	37352	34178	
2116	0	29280	37256	37376	34228	
2117	0	30640	37120	37376	34278	
2118	0	31802	37281	37350	34324	
2119	0	34176	37223	37336	34340	
2120	0	36364	37312	37344	34380	
2121	0	35020	37312	37320	34396	
2122	0	36536	37190	37300	34414	
2123	0	39908	37322	37298	34412	
2124	0	37716	37356	37280	34380	
2125	0	33884	37274	37272	34366	
2126	0	30616	37066	37272	34324	
2127	0	28876	37106	37248	34287	
2128	0	29072	37016	37228	34276	
2129	0	30488	37272	37236	34222	
2130	0	30858	37246	37236	34172	
2131	0	30765	37236	37260	34152	
2132	0	30086	37140	37256	34118	
2133	0	31736	37205	37260	34108	
2134	0	33998	37236	37252	34092	
2135	0	35125	37080	37262	34060	
2136	0	40288	37152	37269	34060	
2137	0	44622	37428	37288	34068	
2138	0	41852	37228	37290	34082	
2139	0	34388	36964	37312	34084	
2140	0	27940	36808	37320	34113	
2141	0	24106	36872	37319	34124	
2142	0	26380	36740	37324	34136	
2143	0	30779	36686	37324	34166	
2144	0	31062	36762	37344	34208	
2145	0	31408	36652	37368	34222	
2146	0	35233	36748	37370	34266	
2147	0	34826	36678	37386	34264	
2148	0	34236	36700	37406	34286	
2149	0	31918	36604	37384	34306	
2150	0	32164	36792	37394	34319	
2151	0	30960	36824	37423	34320	
2152	0	31484	36836	37418	34318	
2153	0	28958	36848	37408	34350	
2154	0	26025	36918	37436	34344	
2155	0	25215	37054	37446	34338	
2156	0	32774	37100	37434	34336	
2157	0	40982	37460	37452	34330	
2158	0	43392	37553	37448	34318	
2159	0	38168	37460	37431	34312	
2160	0	30818	37350	37408	34290	
2161	0	25968	37425	37416	34286	
2162	0	25613	37452	37394	34298	
2163	0	27776	37452	37382	34309	
2164	0	29040	37436	37356	34362	
2165	0	27648	37356	37322	34356	
2166	0	26799	37290	37316	34399	
2167	0	28122	37460	37304	34426	
2168	0	30950	37356	37264	34438	
2169	0	37722	37376	37248	34464	
2170	0	45014	37678	37260	34467	
2171	0	47704	37694	37243	34488	
2172	0	44340	37588	37264	34494	
2173	0	38986	37270	37248	34482	
2174	0	33350	37140	37234	34477	
2175	0	30312	37040	37239	34450	
2176	0	33072	37044	37218	34407	
2177	0	35370	37064	37216	34364	
2178	0	32172	37096	37232	34304	
2179	0	30032	37094	37224	34276	
2180	0	31460	37088	37280	34208	
2181	0	40495	37320	37292	34180	
2182	0	39772	37308	37281	34124	
2183	0	34468	37210	37266	34106	
2184	0	29404	37298	37300	34080	
2185	0	21452	37248	37304	34049	
2186	0	16097	37196	37334	34040	
2187	0	16273	37340	37329	34004	
2188	0	19222	37250	37346	33996	
2189	0	24374	37272	37360	33982	
2190	0	31046	37410	37382	33968	
2191	0	35156	37410	37352	34010	
2192	0	36928	37410	37360	34030	
2193	0	36802	37465	37320	34020	
2194	0	38108	37416	37298	34052	
2195	0	38684	37560	37282	34058	
2196	0	38150	37634	37248	34082	
2197	0	38688	37638	37224	34076	
2198	0	39984	37644	37225	34069	
2199	0	40300	37718	37200	34092	
2200	0	41176	37742	37196	34092	
2201	0	39480	37648	37192	34085	
2202	0	35114	37480	37154	34114	
2203	0	30996	37538	37134	34118	
2204	0	29324	37642	37106	34110	
2205	0	29800	37582	37096	34102	
2206	0	33798	37522	37076	34084	
2207	0	41600	37622	37098	34104	
2208	0	46742	37869	37060	34069	
2209	0	41636	37548	37056	34084	
2210	0	31448	37354	37016	34068	
2211	0	21887	37386	37028	34063	
2212	0	16853	37376	37014	34064	
2213	0	16504	37332	37026	34038	
2214	0	18348	37520	37026	34069	
2215	0	19694	37507	37028	34076	
2216	0	21694	37528	37036	34118	
2217	0	27490	37477	37048	34112	
2218	0	33676	37548	37056	34148	
2219	0	39624	37584	37090	34184	
2220	0	43392	37800	37102	34185	
2221	0	46534	37996	37125	34215	
2222	0	44334	37774	37098	34206	
2223	0	38704	37578	37082	34210	
2224	0	32874	37521	37074	34196	
2225	0	29268	37448	37081	34196	
2226	0	27844	37362	37055	34176	
2227	0	28004	37292	37056	34178	
2228	0	28274	37352	37056	34164	
2229	0	28343	37388	37060	34172	
2230	0	29178	37302	37042	34166	
2231	0	30972	37218	37026	34158	
2232	0	35142	37442	37024	34176	
2233	0	40866	37490	37071	34164	
2234	0	46628	37842	37076	34178	
2235	0	50506	37636	37114	34208	
2236	0	44708	37714	37128	34234	
2237	0	35434	37350	37100	34222	
2238	0	26456	37432	37127	34226	
2239	0	20892	37348	37160	34212	
2240	0	22072	37486	37170	34224	
2241	0	26178	37460	37174	34208	
2242	0	29682	37356	37196	34202	
2243	0	34866	37452	37216	34212	
2244	0	42338	37708	37178	34224	
2245	0	52456	37704	37184	34234	
2246	0	48650	37966	37148	34244	
2247	0	35294	37528	37130	34262	
2248	0	22170	37521	37096	34288	
2249	0	13444	37548	37069	34294	
2250	0	10054	37718	37064	34308	
2251	0	11842	37836	37047	34324	
2252	0	15908	37878	37026	34336	
2253	0	20010	37910	37028	34326	
2254	0	25438	38044	37042	34348	
2255	0	33096	38110	37018	34366	
2256	0	38804	38198	36996	34376	
2257	0	40586	38308	36974	34380	
2258	0	41002	38310	36988	34414	
2259	0	40986	38242	36944	34456	
2260	0	41250	38176	36908	34476	
2261	0	42660	38348	36896	34532	
2262	0	43386	38264	36886	34535	
2263	0	43024	38232	36871	34548	
2264	0	44922	38278	36848	34556	
2265	0	51208	38240	36826	34556	
2266	0	49106	38230	36822	34548	
2267	0	42432	37942	36818	34514	
2268	0	30368	37742	36804	34466	
2269	0	19750	37678	36796	34402	
2270	0	15658	37620	36790	34354	
2271	0	15636	37786	36772	34288	
2272	0	14772	37672	36796	34260	
2273	0	16539	37712	36794	34208	
2274	0	19201	37588	36783	34138	
2275	0	24597	37682	36812	34106	
2276	0	31210	37684	36786	34071	
2277	0	36802	37743	36799	34036	
2278	0	40858	37776	36806	34018	
2279	0	46376	38206	36793	34026	
2280	0	44498	38113	36792	34008	
2281	0	39574	37842	36768	33980	
2282	0	34486	37666	36770	34004	
2283	0	31147	37612	36776	33988	
2284	0	30328	37710	36776	34008	
2285	0	34490	37670	36798	34021	
2286	0	38864	37658	36782	34032	
2287	0	41236	37740	36788	34038	
2288	0	36988	37592	36792	34058	
2289	0	33901	37652	36768	34060	
2290	0	29894	37634	36760	34066	
2291	0	26988	37776	36752	34112	
2292	0	27036	37678	36756	34144	
2293	0	34324	37751	36754	34154	
2294	0	34377	37764	36769	34174	
2295	0	30817	37922	36760	34200	
2296	0	27548	37827	36774	34212	
2297	0	24760	37736	36788	34228	
2298	0	25298	37894	36780	34244	
2299	0	27612	38012	36814	34252	
2300	0	29938	37904	36836	34276	
2301	0	33074	38000	36836	34310	
2302	0	37868	38078	36800	34338	
2303	0	40401	38024	36788	34346	
2304	0	38942	38022	36746	34366	
2305	0	36160	37944	36758	34372	
2306	0	33308	37890	36728	34401	
2307	0	32614	37836	36706	34386	
2308	0	33102	37888	36714	34374	
2309	0	32958	37860	36660	34324	
2310	0	32530	37716	36636	34294	
2311	0	43530	37926	36604	34224	
2312	0	48884	38348	36580	34168	
2313	0	40837	37862	36544	34122	
2314	0	30690	37544	36540	34064	
2315	0	23206	37476	36512	34020	
2316	0	21340	37808	36520	33983	
2317	0	27498	37769	36508	33984	
2318	0	29080	37910	36534	33978	
2319	0	26944	37982	36546	34010	
2320	0	23797	37982	36576	34032	
2321	0	23860	37984	36604	34078	
2322	0	26418	38052	36634	34128	
2323	0	28922	38162	36640	34176	
2324	0	31738	38154	36692	34242	
2325	0	35248	38114	36698	34308	
2326	0	36502	38220	36706	34368	
2327	0	38558	38148	36706	34400	
2328	0	40416	38286	36674	34450	
2329	0	42016	38258	36658	34492	
2330	0	43188	38232	36648	34531	
2331	0	40900	38048	36630	34562	
2332	0	36358	37784	36580	34586	
2333	0	36270	37854	36576	34587	
2334	0	37583	37854	36578	34568	
2335	0	33640	37752	36536	34552	
2336	0	29182	37744	36520	34524	
2337	0	27274	37742	36512	34498	
2338	0	26066	37670	36496	34456	
2339	0	22622	37718	36512	34414	
2340	0	20254	37736	36546	34366	
2341	0	25696	37576	36554	34306	
2342	0	31728	37762	36556	34286	
2343	0	31732	37706	36568	34246	
2344	0	30856	37762	36582	34234	
2345	0	30420	37860	36580	34204	
2346	0	31541	37622	36599	34177	
2347	0	33624	37684	36602	34188	
2348	0	35124	37908	36596	34184	
2349	0	35408	37916	36610	34215	
2350	0	35500	37944	36590	34264	
2351	0	35888	37938	36574	34276	
2352	0	35044	37986	36580	34282	
2353	0	34570	37970	36546	34316	
2354	0	35132	38050	36518	34334	
2355	0	35276	38004	36504	34364	
2356	0	36352	38050	36472	34404	
2357	0	37284	37920	36456	34367	
2358	0	37298	38074	36408	34364	
2359	0	38748	38184	36386	34352	
2360	0	38332	38088	36374	34320	
2361	0	35616	37960	36344	34276	
2362	0	34312	38000	36328	34244	
2363	0	33406	37984	36302	34186	
2364	0	29766	37924	36272	34154	
2365	0	27648	37920	36240	34130	
2366	0	35938	37920	36190	34088	
2367	0	51384	38345	36174	34056	
2368	0	46840	38308	36177	34036	
2369	0	32286	37888	36144	34048	
2370	0	16048	37800	36116	34048	
2371	0	6268	37878	36096	34068	
2372	0	5926	37928	36110	34115	
2373	0	10389	37962	36140	34150	
2374	0	17140	38076	36144	34188	
2375	0	22016	38063	36125	34256	
2376	0	30821	38162	36141	34275	
2377	0	38182	38230	36152	34330	
2378	0	42328	38446	36162	34358	
2379	0	42786	38580	36164	34388	
2380	0	42648	38344	36156	34390	
2381	0	43624	38497	36150	34408	
2382	0	44532	38508	36164	34444	
2383	0	44399	38500	36128	34452	
2384	0	42338	38302	36110	34448	
2385	0	37454	38310	36068	34452	
2386	0	33030	37996	36020	34460	
2387	0	31649	38026	35996	34486	
2388	0	34220	38063	35970	34512	
2389	0	31838	38007	35958	34511	
2390	0	32222	37954	35938	34522	
2391	0	37028	38056	35968	34530	
2392	0	35613	37988	35944	34496	
2393	0	32046	38078	35944	34468	
2394	0	28698	37964	35996	34416	
2395	0	30622	38024	36024	34344	
2396	0	32228	38066	36016	34284	
2397	0	29801	38020	36040	34222	
2398	0	26400	38004	36040	34184	
2399	0	24750	37972	36042	34158	
2400	0	28068	38058	36059	34128	
2401	0	33808	37932	36064	34148	
2402	0	33312	38000	36060	34180	
2403	0	35092	37956	36056	34208	
2404	0	34631	38000	36080	34258	
2405	0	31062	38016	36070	34314	
2406	0	27821	38040	36082	34368	
2407	0	25082	38108	36072	34446	
2408	0	27291	38148	36098	34464	
2409	0	39872	38272	36124	34522	
2410	0	55232	38492	36168	34566	
2411	0	53050	38388	36168	34580	
2412	0	42384	38370	36170	34588	
2413	0	31012	38288	36150	34616	
2414	0	20520	38200	36177	34602	
2415	0	15356	38180	36156	34596	
2416	0	16250	38150	36132	34574	
2417	0	17275	38124	36130	34583	
2418	0	19756	38318	36127	34574	
2419	0	25194	38112	36086	34598	
2420	0	33366	38112	36076	34601	
2421	0	36926	38240	36082	34606	
2422	0	39900	38214	36062	34591	
2423	0	48264	38672	36076	34604	
2424	0	50486	38485	36068	34592	
2425	0	44578	38375	36060	34565	
2426	0	37376	37979	36038	34532	
2427	0	31452	37923	36072	34492	
2428	0	30808	37960	36056	34450	
2429	0	29572	37920	36068	34450	
2430	0	28274	37932	36080	34430	
2431	0	25792	37900	36088	34406	
2432	0	24752	37834	36064	34396	
2433	0	25609	37980	36098	34378	
2434	0	30670	38040	36118	34343	
2435	0	36204	38177	36138	34335	
2436	0	42722	38188	36153	34351	
2437	0	42632	37930	36134	34334	
2438	0	37570	38530	36168	34340	
2439	0	31902	37650	36196	34312	
2440	0	28414	37536	36096	34230	
2441	0	28834	39152	35980	34260	
2442	0	31584	39684	36024	34390	
2443	0	33822	38688	36100	34426	
2444	0	36282	37728	36128	34362	
2445	0	33884	37394	36140	34248	
2446	0	32964	37606	36096	34164	
2447	0	32866	37774	36060	34116	
2448	0	34843	38080	36030	34078	
2449	0	35354	38226	35980	34064	
2450	0	34784	38344	35918	34078	
2451	0	32174	38618	35875	34088	
2452	0	31656	38624	35808	34102	
2453	0	29126	38702	35761	34138	
2454	0	28024	38666	35722	34194	
2455	0	29164	38544	35687	34242	
2456	0	29854	38532	35696	34258	
2457	0	29140	38582	35700	34282	
2458	0	28614	38644	35737	34294	
2459	0	31048	38752	35760	34348	
2460	0	34487	38760	35766	34384	
2461	0	42308	38460	35828	34398	
2462	0	47178	39008	35860	34402	
2463	0	42774	38842	35847	34418	
2464	0	34144	38828	35888	34440	
2465	0	27765	38534	35860	34428	
2466	0	27828	38392	35866	34440	
2467	0	29830	38274	35846	34439	
2468	0	30938	38236	35848	34434	
2469	0	36652	38304	35820	34444	
2470	0	40868	38320	35778	34442	
2471	0	36308	38312	35722	34446	
2472	0	33688	38300	35662	34457	
2473	0	27626	38382	35609	34474	
2474	0	21447	38440	35588	34484	
2475	0	20244	38558	35544	34496	
2476	0	24236	38374	35542	34490	
2477	0	31252	38540	35534	34488	
2478	0	35335	38692	35556	34500	
2479	0	40776	38746	35583	34510	
2480	0	55892	38915	35598	34548	
2481	0	56620	38848	35612	34578	
2482	0	42280	38832	35640	34604	
2483	0	24520	38574	35668	34666	
2484	0	10990	38532	35664	34700	
2485	0	4707	38730	35685	34746	
2486	0	7678	38640	35692	34772	
2487	0	16978	38470	35671	34792	
2488	0	30203	38512	35652	34791	
2489	0	40104	38748	35620	34808	
2490	0	39432	38760	35604	34832	
2491	0	35964	38652	35594	34834	
2492	0	32644	38666	35554	34826	
2493	0	30924	38658	35528	34808	
2494	0	32240	38618	35480	34798	
2495	0	35464	38558	35470	34800	
2496	0	39327	38556	35438	34764	
2497	0	39114	38722	35392	34736	
2498	0	40864	38608	35400	34703	
2499	0	42541	38784	35394	34680	
2500	0	40042	38760	35370	34686	
2501	0	37424	38497	35400	34710	
2502	0	33754	38346	35373	34724	
2503	0	33668	38368	35406	34740	
2504	0	36684	38138	35478	34718	
2505	0	39098	38096	35488	34698	
2506	0	37978	38062	35498	34680	
2507	0	31853	38022	35522	34668	
2508	0	25948	37992	35514	34640	
2509	0	22836	38000	35536	34592	
2510	0	23272	38092	35534	34564	
2511	0	23862	38092	35541	34504	
2512	0	29252	38244	35504	34480	
2513	0	37828	38428	35527	34446	
2514	0	46660	38386	35480	34392	
2515	0	43546	39040	35346	34354	
2516	0	46198	40431	35244	34404	
2517	0	53088	40728	35356	34536	
2518	0	43392	38826	35516	34544	
2519	0	26942	37698	35568	34511	
2520	0	14447	37441	35580	34440	
2521	0	7606	37774	35536	34386	
2522	0	5097	38248	35508	34362	
2523	0	7936	38678	35472	34380	
2524	0	14068	39064	35420	34414	
2525	0	23045	39358	35340	34483	
2526	0	32904	39400	35272	34556	
2527	0	40688	39630	35152	34644	
2528	0	43722	39530	35074	34710	
2529	0	44768	39592	35040	34776	
2530	0	42716	39274	35034	34814	
2531	0	40712	38914	35040	34840	
2532	0	40544	38706	35055	34848	
2533	0	42964	38658	35086	34860	
2534	0	47018	38912	35120	34824	
2535	0	50704	38946	35148	34789	
2536	0	44340	38502	35170	34733	
2537	0	38290	38406	35190	34680	
2538	0	47524	38865	35176	34616	
2539	0	43528	38743	35184	34586	
2540	0	28390	38680	35184	34554	
2541	0	13524	38826	35170	34524	
2542	0	3951	38746	35144	34526	
2543	0	2655	38800	35124	34535	
2544	0	6989	38890	35100	34550	
2545	0	16664	38888	35100	34568	
2546	0	25210	38920	35112	34588	
2547	0	33148	38760	35082	34610	
2548	0	36656	38888	35062	34612	
2549	0	39768	38944	35062	34608	
2550	0	42378	38992	35034	34640	
2551	0	43034	38882	34990	34660	
2552	0	42991	38830	34980	34646	
2553	0	43780	39030	34976	34664	
2554	0	43892	38914	34958	34646	
2555	0	42189	38833	34944	34630	
2556	0	38516	38796	34916	34600	
2557	0	44175	38868	34858	34586	
2558	0	44608	38822	34843	34534	
2559	0	38858	38692	34860	34526	
2560	0	34040	38634	34834	34472	
2561	0	45078	38864	34832	34455	
2562	0	49622	39340	34864	34429	
2563	0	36064	38734	34880	34428	
2564	0	18324	38631	34886	34422	
2565	0	3666	38734	34914	34432	
2566	0	18	38996	34922	34468	
2567	0	4390	38996	34974	34470	
2568	0	9001	39006	34984	34507	
2569	0	12702	39224	35008	34546	
2570	0	15734	39242	34976	34596	
2571	0	34625	39354	34944	34638	
2572	0	42240	39524	34900	34668	
2573	0	47488	39856	34843	34710	
2574	0	48836	40000	34778	34726	
2575	0	46880	39562	34700	34756	
2576	0	44694	39152	34606	34736	
2577	0	42423	38986	34560	34736	
2578	0	42372	38858	34478	34712	
2579	0	48816	39194	34432	34676	
2580	0	47780	39100	34368	34618	
2581	0	39366	38570	34330	34570	
2582	0	29568	38361	34294	34498	
2583	0	29079	38344	34316	34471	
2584	0	37610	38452	34348	34462	
2585	0	39574	38624	34414	34412	
2586	0	30905	38494	34495	34418	
2587	0	21282	38528	34560	34382	
2588	0	14858	38644	34640	34410	
2589	0	11472	38730	34718	34436	
2590	0	13208	38618	34778	34496	
2591	0	16492	38784	34850	34567	
2592	0	23679	38764	34900	34630	
2593	0	29804	38757	34928	34692	
2594	0	35762	38912	34933	34746	
2595	0	40500	38906	34904	34800	
2596	0	43332	38990	34904	34838	
2597	0	45124	39116	34838	34902	
2598	0	42868	39006	34784	34898	
2599	0	38056	38820	34762	34922	
2600	0	33574	38656	34712	34884	
2601	0	29960	38732	34671	34854	
2602	0	28837	38786	34636	34813	
2603	0	31782	38799	34574	34751	
2604	0	36464	38868	34562	34664	
2605	0	38700	38844	34505	34628	
2606	0	38383	38976	34464	34575	
2607	0	36856	38976	34482	34532	
2608	0	37114	39020	34441	34494	
2609	0	38313	38990	34436	34466	
2610	0	35586	39026	34404	34446	
2611	0	32023	38792	34380	34432	
2612	0	29804	38752	34359	34456	
2613	0	34452	38760	34356	34474	
2614	0	42984	38762	34352	34500	
2615	0	46336	39023	34346	34542	
2616	0	35664	38678	34374	34565	
2617	0	23808	38602	34384	34594	
2618	0	14633	38617	34390	34626	
2619	0	10008	38568	34376	34626	
2620	0	10610	38808	34384	34638	
2621	0	17842	38736	34392	34636	
2622	0	26316	38784	34380	34645	
2623	0	37266	38927	34338	34656	
2624	0	39820	38944	34318	34634	
2625	0	40472	38968	34278	34618	
2626	0	40466	39076	34264	34618	
2627	0	37664	39052	34226	34608	
2628	0	33240	39076	34154	34608	
2629	0	31066	39042	34115	34652	
2630	0	33816	38942	34110	34680	
2631	0	36161	39008	34072	34696	
2632	0	37232	38894	34058	34748	
2633	0	36626	38835	34052	34784	
2634	0	36802	38880	34044	34804	
2635	0	36832	38820	34006	34843	
2636	0	40886	38904	34000	34894	
2637	0	39528	38750	33970	34870	
2638	0	34810	38690	33968	34868	
2639	0	33114	38558	33968	34866	
2640	0	33464	38598	33952	34832	
2641	0	32902	38476	33932	34816	
2642	0	29914	38582	33925	34788	
2643	0	28670	38412	33936	34746	
2644	0	29306	38444	33896	34679	
2645	0	26252	38588	33870	34654	
2646	0	24032	38650	33862	34592	
2647	0	26216	38740	33856	34570	
2648	0	28262	38926	33810	34544	
2649	0	27398	39066	33832	34532	
2650	0	29298	39058	33818	34540	
2651	0	33743	39228	33792	34538	
2652	0	36298	39316	33756	34544	
2653	0	36600	39290	33716	34570	
2654	0	33720	39186	33646	34576	
2655	0	32786	39242	33570	34628	
2656	0	35812	39192	33512	34704	
2657	0	37128	39210	33452	34740	
2658	0	35774	39060	33402	34778	
2659	0	33376	38994	33362	34828	
2660	0	30000	38960	33348	34841	
2661	0	30228	38794	33332	34868	
2662	0	32268	38820	33356	34868	
2663	0	34778	38816	33372	34890	
2664	0	35956	38744	33416	34868	
2665	0	37546	38876	33436	34870	
2666	0	51750	39478	33416	34854	
2667	0	55640	39220	33468	34846	
2668	0	52778	39412	33498	34812	
2669	0	49908	39568	33524	34770	
2670	0	21380	39008	33580	34747	
2671	0	4898	39112	33592	34758	
2672	0	20	39216	33612	34719	
2673	0	3920	39394	33592	34706	
2674	0	8644	39414	33574	34697	
2675	0	12414	39502	33520	34702	
2676	0	25576	39608	33500	34722	
2677	0	41354	39723	33434	34716	
2678	0	45602	39868	33382	34732	
2679	0	50988	40380	33292	34785	
2680	0	50676	40170	33248	34784	
2681	0	49536	40042	33188	34830	
2682	0	50474	40015	33172	34870	
2683	0	42656	39275	33194	34922	
2684	0	32132	38926	33214	34932	
2685	0	23188	38784	33274	34970	
2686	0	21451	38707	33300	35014	
2687	0	18568	38604	33372	35032	
2688	0	20564	38487	33406	35054	
2689	0	25731	38488	33455	35040	
2690	0	29073	38574	33512	35042	
2691	0	31436	38646	33574	35044	
2692	0	34216	38806	33632	35038	
2693	0	37848	38734	33686	35020	
2694	0	39674	38740	33724	35004	
2695	0	39976	38828	33744	34960	
2696	0	39128	38914	33760	34904	
2697	0	39224	38767	33804	34880	
2698	0	41684	38796	33784	34849	
2699	0	39480	38704	33806	34822	
2700	0	35283	38832	33790	34756	
2701	0	31188	38700	33768	34702	
2702	0	28900	38732	33750	34672	
2703	0	30464	38776	33711	34626	
2704	0	37728	38789	33689	34561	
2705	0	42854	38964	33636	34536	
2706	0	38328	38856	33652	34468	
2707	0	32309	38967	33588	34451	
2708	0	31806	38816	33602	34390	
2709	0	27194	38892	33574	34368	
2710	0	19958	38912	33540	34354	
2711	0	17510	38836	33564	34336	
2712	0	18936	38748	33568	34346	
2713	0	22686	38644	33545	34372	
2714	0	27936	38876	33548	34420	
2715	0	31152	38904	33534	34482	
2716	0	31352	38793	33542	34534	
2717	0	35352	38866	33526	34620	
2718	0	40672	39064	33458	34656	
2719	0	41600	39070	33444	34680	
2720	0	39900	38959	33444	34699	
2721	0	38332	38854	33444	34704	
2722	0	38620	38914	33384	34702	
2723	0	39520	38976	33374	34676	
2724	0	40360	38842	33357	34652	
2725	0	36428	38718	33316	34628	
2726	0	30644	38762	33262	34587	
2727	0	27068	38896	33234	34552	
2728	0	25238	38800	33212	34522	
2729	0	26184	38838	33178	34522	
2730	0	26624	38854	33164	34512	
2731	0	27056	39078	33127	34525	
2732	0	35572	39156	33146	34550	
2733	0	39864	39348	33120	34536	
2734	0	38826	39370	33100	34526	
2735	0	35052	39348	33054	34520	
2736	0	32839	39407	33016	34513	
2737	0	31023	39388	32999	34508	
2738	0	38004	39312	32944	34528	
2739	0	39914	39164	32880	34538	
2740	0	41858	39272	32832	34570	
2741	0	43470	39120	32787	34600	
2742	0	35584	38948	32746	34640	
2743	0	25162	38976	32718	34666	
2744	0	16537	38930	32692	34680	
2745	0	14311	38824	32704	34698	
2746	0	16587	38848	32703	34720	
2747	0	19800	38976	32719	34772	
2748	0	28696	39080	32764	34798	
2749	0	35408	39064	32796	34822	
2750	0	37990	39104	32848	34866	
2751	0	36098	39092	32856	34864	
2752	0	34412	38976	32914	34868	
2753	0	34680	39174	32944	34902	
2754	0	35424	39120	32938	34899	
2755	0	34560	39184	32940	34924	
2756	0	34738	39030	32918	34912	
2757	0	35840	39205	32900	34930	
2758	0	35586	39014	32865	34921	
2759	0	34294	38960	32822	34908	
2760	0	34778	38956	32782	34896	
2761	0	38514	38940	32758	34884	
2762	0	41536	38994	32746	34850	
2763	0	38462	38828	32738	34828	
2764	0	35860	38738	32729	34816	
2765	0	34392	38594	32724	34762	
2766	0	29090	38722	32734	34716	
2767	0	27347	38536	32738	34648	
2768	0	43552	38762	32733	34612	
2769	0	54583	38792	32748	34550	
2770	0	46522	39008	32760	34489	
2771	0	31064	38478	32810	34496	
2772	0	17762	38566	32822	34448	
2773	0	9215	38584	32825	34460	
2774	0	8336	38640	32834	34480	
2775	0	10138	38760	32854	34498	
2776	0	19380	38801	32866	34540	
2777	0	28548	38858	32903	34610	
2778	0	36520	38750	32906	34674	
2779	0	40248	38896	32890	34722	
2780	0	40106	38928	32854	34782	
2781	0	39520	38862	32855	34824	
2782	0	39002	38914	32820	34842	
2783	0	35788	38918	32796	34820	
2784	0	32698	38896	32776	34826	
2785	0	31812	38805	32744	34780	
2786	0	33396	38754	32728	34702	
2787	0	34976	38791	32693	34644	
2788	0	34362	38769	32645	34592	
2789	0	35428	38864	32652	34516	
2790	0	37312	38824	32624	34458	
2791	0	36596	38869	32596	34418	
2792	0	36262	38764	32562	34370	
2793	0	36024	38790	32556	34350	
2794	0	35136	38864	32536	34352	
2795	0	34356	38898	32549	34344	
2796	0	32072	38900	32532	34364	
2797	0	30832	38928	32532	34394	
2798	0	31052	39002	32564	34416	
2799	0	37580	38933	32560	34438	
2800	0	49384	39552	32544	34468	
2801	0	52416	39740	32518	34452	
2802	0	41896	38884	32492	34470	
2803	0	29184	38840	32478	34443	
2804	0	19216	38694	32432	34432	
2805	0	14459	38788	32422	34388	
2806	0	8528	38896	32388	34352	
2807	0	11032	38860	32344	34336	
2808	0	14742	38879	32332	34314	
2809	0	26302	38746	32270	34326	
2810	0	35662	38936	32262	34316	
2811	0	37704	38966	32241	34332	
2812	0	36007	38946	32240	34376	
2813	0	36258	38972	32240	34400	
2814	0	37028	39106	32218	34460	
2815	0	38954	39106	32214	34494	
2816	0	40818	39112	32227	34576	
2817	0	42186	39192	32236	34616	
2818	0	43820	39320	32256	34668	
2819	0	40252	39212	32236	34688	
2820	0	35692	39164	32216	34720	
2821	0	31867	39116	32194	34698	
2822	0	29552	39084	32178	34684	
2823	0	29474	38948	32158	34644	
2824	0	28874	38948	32154	34586	
2825	0	34808	38816	32090	34572	
2826	0	39952	38800	32096	34490	
2827	0	38153	38596	32080	34474	
2828	0	33393	38292	32088	34434	
2829	0	28552	38280	32084	34388	
2830	0	24570	38254	32122	34364	
2831	0	23208	38084	32149	34342	
2832	0	23904	38038	32156	34344	
2833	0	25296	38064	32212	34314	
2834	0	30046	38200	32264	34364	
2835	0	34438	38012	32264	34372	
2836	0	36444	38112	32332	34376	
2837	0	38884	38116	32354	34374	
2838	0	43968	38370	32387	34392	
2839	0	45114	38474	32404	34393	
2840	0	44064	38474	32394	34402	
2841	0	37364	38326	32398	34436	
2842	0	30148	38384	32378	34451	
2843	0	24454	38352	32346	34466	
2844	0	20560	38474	32300	34466	
2845	0	18638	38480	32284	34469	
2846	0	21712	38560	32256	34476	
2847	0	30252	38586	32214	34512	
2848	0	33732	38692	32176	34532	
2849	0	34016	38706	32122	34570	
2850	0	40424	38936	32084	34616	
2851	0	44663	38936	32044	34634	
2852	0	43432	38762	32000	34698	
2853	0	39447	38834	31986	34744	
2854	0	34100	38618	31940	34780	
2855	0	29356	38592	31897	34826	
2856	0	25540	38592	31860	34864	
2857	0	23014	38496	31848	34878	
2858	0	22098	38535	31850	34880	
2859	0	23564	38592	31858	34880	
2860	0	30688	38690	31864	34874	
2861	0	38332	38724	31880	34848	
2862	0	42440	38971	31888	34818	
2863	0	48062	39410	31864	34792	
2864	0	51948	39664	31872	34765	
2865	0	47246	39576	31828	34698	
2866	0	36908	38982	31780	34666	
2867	0	22830	38966	31708	34591	
2868	0	8758	38916	31662	34530	
2869	0	4878	39002	31594	34466	
2870	0	9912	38980	31548	34448	
2871	0	22774	38958	31468	34446	
2872	0	34868	39112	31448	34414	
2873	0	40889	39404	31390	34424	
2874	0	42799	39280	31366	34428	
2875	0	41256	39336	31346	34416	
2876	0	42128	39400	31340	34428	
2877	0	40622	39344	31350	34442	
2878	0	38103	39298	31380	34418	
2879	0	36106	39042	31392	34444	
2880	0	35436	38756	31412	34434	
2881	0	32900	38588	31422	34442	
2882	0	30516	38344	31412	34436	
2883	0	31104	38132	31458	34416	
2884	0	31368	38182	31516	34410	
2885	0	34448	38188	31570	34398	
2886	0	36234	38116	31632	34394	
2887	0	34114	38176	31674	34402	
2888	0	31178	38193	31744	34400	
2889	0	31772	38130	31806	34392	
2890	0	30868	38220	31839	34408	
2891	0	31076	38118	31898	34414	
2892	0	31780	38176	31936	34402	
2893	0	32021	38048	31934	34384	
2894	0	32661	38080	31916	34394	
2895	0	32866	37910	31914	34384	
2896	0	37440	38036	31882	34395	
2897	0	46332	38453	31886	34362	
2898	0	48688	38566	31856	34362	
2899	0	43940	38184	31823	34356	
2900	0	31459	37941	31798	34347	
2901	0	18570	37996	31812	34354	
2902	0	11396	38116	31824	34362	
2903	0	15056	38260	31838	34368	
2904	0	19864	38201	31864	34392	
2905	0	26520	38368	31920	34436	
2906	0	34168	38496	31970	34456	
2907	0	36736	38580	31968	34510	
2908	0	33248	38508	31984	34564	
2909	0	33154	38520	31976	34613	
2910	0	33209	38478	31964	34665	
2911	0	34522	38460	31918	34736	
2912	0	35464	38492	31858	34808	
2913	0	36548	38474	31804	34868	
2914	0	36192	38314	31734	34912	
2915	0	36624	38338	31676	34954	
2916	0	37128	38200	31644	34992	
2917	0	37008	38212	31620	35008	
2918	0	36248	38054	31612	35000	
2919	0	34810	38020	31636	34996	
2920	0	33167	37848	31620	34970	
2921	0	33590	37903	31639	34924	
2922	0	36698	37890	31660	34888	
2923	0	37356	37990	31692	34824	
2924	0	36240	37870	31710	34742	
2925	0	37022	38180	31730	34641	
2926	0	36388	38070	31710	34584	
2927	0	33251	38296	31666	34502	
2928	0	29324	38288	31608	34436	
2929	0	22405	38498	31604	34380	
2930	0	17904	38554	31537	34324	
2931	0	19492	38730	31476	34300	
2932	0	20266	38901	31402	34292	
2933	0	25049	38994	31334	34322	
2934	0	30012	39000	31224	34322	
2935	0	32104	39178	31138	34362	
2936	0	35212	39040	31063	34434	
2937	0	38814	39220	30992	34492	
2938	0	41172	39208	30944	34572	
2939	0	42680	39138	30870	34636	
2940	0	39337	38992	30882	34672	
2941	0	35116	39003	30836	34724	
2942	0	32952	39008	30828	34751	
2943	0	29861	38999	30818	34734	
2944	0	28287	39090	30816	34736	
2945	0	31200	39235	30844	34692	
2946	0	33864	39432	30900	34660	
2947	0	34352	39592	30916	34652	
2948	0	34008	39648	30935	34604	
2949	0	37016	39778	30936	34606	
2950	0	37560	39558	30942	34576	
2951	0	38088	39490	30926	34576	
2952	0	39700	39244	30876	34599	
2953	0	44820	39090	30853	34604	
2954	0	46848	39012	30840	34596	
2955	0	43626	38376	30804	34607	
2956	0	33890	37830	30788	34631	
2957	0	21872	37760	30824	34644	
2958	0	18932	37560	30856	34656	
2959	0	31752	37472	30981	34649	
2960	0	30776	37472	31084	34634	
2961	0	25390	37484	31193	34654	
2962	0	23519	37404	31322	34688	
2963	0	19729	37512	31468	34726	
2964	0	13314	37710	31602	34752	
2965	0	14887	38036	31690	34764	
2966	0	22172	38082	31752	34764	
2967	0	29802	37872	31860	34741	
2968	0	33776	38018	31920	34798	
2969	0	39040	38188	31951	34798	
2970	0	41304	38224	31902	34836	
2971	0	41368	38290	31806	34824	
2972	0	41264	38272	31720	34820	
2973	0	41014	38240	31628	34792	
2974	0	39296	38154	31560	34762	
2975	0	38756	38112	31496	34703	
2976	0	38708	38016	31446	34667	
2977	0	39272	37844	31380	34620	
2978	0	38760	37698	31378	34556	
2979	0	38882	37596	31400	34480	
2980	0	44274	37784	31412	34455	
2981	0	43540	37832	31448	34422	
2982	0	33902	37448	31502	34385	
2983	0	23426	37496	31538	34356	
2984	0	16863	37560	31566	34350	
2985	0	12116	37628	31630	34340	
2986	0	11683	37566	31685	34356	
2987	0	18634	37730	31718	34367	
2988	0	27518	37986	31738	34418	
2989	0	36106	38140	31728	34468	
2990	0	41560	38264	31720	34538	
2991	0	43031	38438	31716	34592	
2992	0	42040	38484	31653	34652	
2993	0	40692	38372	31582	34722	
2994	0	39134	38370	31506	34784	
2995	0	37210	38340	31470	34792	
2996	0	35954	38186	31392	34796	
2997	0	33384	38156	31336	34775	
2998	0	34506	38272	31242	34760	
2999	0	33090	38084	31164	34734	
3000	0	36250	38240	31106	34679	
3001	0	35156	38092	31059	34630	
3002	0	31972	38196	30999	34572	
3003	0	29064	38266	30976	34504	
3004	0	25977	38310	30944	34476	
3005	0	20270	38520	30938	34456	
3006	0	20508	38720	30954	34432	
3007	0	26392	38942	30980	34433	
3008	0	28555	39156	30956	34434	
3009	0	31040	39246	30935	34437	
3010	0	29880	39464	30913	34482	
3011	0	34212	39546	30858	34504	
3012	0	36438	39584	30812	34538	
3013	0	37772	39326	30698	34548	
3014	0	37844	39148	30604	34584	
3015	0	38543	39124	30530	34620	
3016	0	42462	38968	30480	34673	
3017	0	49930	39224	30420	34712	
3018	0	55476	38578	30396	34756	
3019	0	45336	38468	30396	34792	
3020	0	31604	37998	30416	34816	
3021	0	18660	37974	30450	34828	
3022	0	7938	37910	30536	34828	
3023	0	4516	37766	30588	34854	
3024	0	7792	37944	30712	34836	
3025	0	19028	38002	30788	34853	
3026	0	31956	38040	30892	34820	
3027	0	40958	38179	30948	34798	
3028	0	44040	38352	30992	34790	
3029	0	43416	38288	31012	34768	
3030	0	41932	38188	31028	34738	
3031	0	42884	38194	31024	34738	
3032	0	45142	38212	31008	34728	
3033	0	44706	38174	30978	34727	
3034	0	41344	37870	30932	34748	
3035	0	35822	37740	30916	34776	
3036	0	28547	37792	30888	34808	
3037	0	23788	37696	30891	34848	
3038	0	21116	37690	30880	34865	
3039	0	23028	37760	30905	34888	
3040	0	28270	37732	30915	34910	
3041	0	35456	37602	30920	34918	
3042	0	40056	37852	30947	34880	
3043	0	37506	37800	30954	34848	
3044	0	33984	37704	30980	34816	
3045	0	32208	37961	31018	34764	
3046	0	30934	37868	31006	34716	
3047	0	30512	38050	31056	34658	
3048	0	28875	37959	31026	34634	
3049	0	29626	38196	30997	34640	
3050	0	31098	38332	30978	34646	
3051	0	29874	38426	30976	34672	
3052	0	31962	38584	30958	34692	
3053	0	32187	38658	30902	34738	
3054	0	31392	38584	30864	34794	
3055	0	32212	38748	30824	34858	
3056	0	33876	38896	30772	34892	
3057	0	35564	38718	30720	34904	
3058	0	36482	38714	30692	34914	
3059	0	43346	38807	30624	34968	
3060	0	44512	38709	30572	34946	
3061	0	40012	38582	30532	34927	
3062	0	36932	38488	30512	34920	
3063	0	27376	38164	30474	34860	
3064	0	20602	38164	30480	34800	
3065	0	29378	38060	30450	34736	
3066	0	43416	38336	30458	34666	
3067	0	46279	38582	30472	34620	
3068	0	39234	38486	30468	34608	
3069	0	29686	38346	30468	34596	
3070	0	18692	38528	30516	34593	
3071	0	5315	38824	30528	34600	
3072	0	6257	38924	30562	34644	
3073	0	14708	39130	30588	34702	
3074	0	23722	39168	30592	34746	
3075	0	31126	39234	30568	34804	
3076	0	37082	39254	30552	34848	
3077	0	40876	39334	30494	34910	
3078	0	42381	39344	30456	34916	
3079	0	42852	39220	30376	34926	
3080	0	40904	38972	30312	34936	
3081	0	37946	38647	30240	34930	
3082	0	36388	38548	30200	34912	
3083	0	35104	38460	30178	34902	
3084	0	34168	38482	30182	34874	
3085	0	35822	38344	30164	34856	
3086	0	37264	38375	30180	34826	
3087	0	40530	38384	30215	34812	
3088	0	45530	38530	30259	34772	
3089	0	43576	38434	30292	34732	
3090	0	39428	38267	30336	34704	
3091	0	33926	38152	30356	34681	
3092	0	25710	38060	30361	34664	
3093	0	19392	38004	30388	34630	
3094	0	16530	38056	30410	34642	
3095	0	18848	38144	30412	34654	
3096	0	26316	38182	30426	34676	
3097	0	33816	38168	30464	34690	
3098	0	36736	38103	30470	34724	
3099	0	36394	38052	30476	34762	
3100	0	38152	37988	30487	34784	
3101	0	39400	37888	30484	34826	
3102	0	40192	37796	30480	34868	
3103	0	38638	37634	30468	34896	
3104	0	34210	37412	30432	34898	
3105	0	30868	37424	30415	34880	
3106	0	31338	37408	30424	34856	
3107	0	31014	37472	30434	34864	
3108	0	28978	37568	30444	34849	
3109	0	28114	37560	30448	34839	
3110	0	27296	37746	30474	34840	
3111	0	25114	38048	30522	34843	
3112	0	28240	38212	30524	34862	
3113	0	29000	38326	30542	34880	
3114	0	26688	38592	30540	34876	
3115	0	31264	38628	30500	34884	
3116	0	38132	38968	30456	34880	
3117	0	41720	38968	30396	34868	
3118	0	42838	39167	30330	34836	
3119	0	41954	39180	30258	34834	
3120	0	40844	39073	30184	34794	
3121	0	41100	38738	30086	34792	
3122	0	39818	38801	30016	34796	
3123	0	33720	38408	29932	34800	
3124	0	26842	38188	29868	34819	
3125	0	26306	38133	29834	34816	
3126	0	28248	38090	29802	34836	
3127	0	28434	37976	29794	34850	
3128	0	33914	38028	29786	34904	
3129	0	40038	38050	29838	34924	
3130	0	36806	38092	29888	34952	
3131	0	28522	38112	29912	34978	
3132	0	20754	38146	29952	35060	
3133	0	13216	38462	30020	35113	
3134	0	9728	38562	30052	35168	
3135	0	16468	38858	30110	35244	
3136	0	24479	39040	30135	35328	
3137	0	32000	39102	30166	35394	
3138	0	39376	39204	30166	35474	
3139	0	42450	39394	30188	35532	
3140	0	45586	39428	30168	35588	
3141	0	49315	39668	30105	35624	
3142	0	53487	39420	30070	35621	
3143	0	51052	39322	30020	35591	
3144	0	42288	38507	29954	35557	
3145	0	34680	38162	29906	35482	
3146	0	28084	38048	29904	35372	
3147	0	21911	37928	29898	35264	
3148	0	24696	37812	29862	35152	
3149	0	27344	37750	29866	35072	
3150	0	32344	37772	29902	34966	
3151	0	28696	37960	29952	34886	
3152	0	24714	37974	29964	34794	
3153	0	24568	38054	30039	34756	
3154	0	26877	38136	30074	34732	
3155	0	30265	38276	30108	34724	
3156	0	32524	38242	30127	34738	
3157	0	35112	38340	30143	34766	
3158	0	35038	38286	30152	34774	
3159	0	36108	38312	30166	34828	
3160	0	36136	38132	30156	34876	
3161	0	35624	37989	30138	34914	
3162	0	35204	38024	30118	34984	
3163	0	35526	37852	30068	35004	
3164	0	35344	37792	30044	35031	
3165	0	35188	37556	30044	35028	
3166	0	35400	37652	30032	35033	
3167	0	36367	37662	30051	34996	
3168	0	35510	37648	30064	34972	
3169	0	33386	37600	30076	34926	
3170	0	31000	37534	30042	34868	
3171	0	28994	37746	30044	34796	
3172	0	28968	37608	30036	34712	
3173	0	32072	37716	30042	34624	
3174	0	35950	37920	30024	34546	
3175	0	36960	37623	30002	34484	
3176	0	32212	37606	30004	34436	
3177	0	29122	37462	29969	34394	
3178	0	29394	37405	29914	34388	
3179	0	33766	37526	29851	34410	
3180	0	36382	37632	29816	34424	
3181	0	36822	37739	29796	34452	
3182	0	35128	37786	29840	34516	
3183	0	33400	37904	29884	34582	
3184	0	29930	37942	29910	34676	
3185	0	27164	37941	29924	34775	
3186	0	32674	37977	29956	34858	
3187	0	36056	37882	29956	34964	
3188	0	37568	38008	29974	35012	
3189	0	36986	38058	29964	35060	
3190	0	31712	37932	29975	35088	
3191	0	28702	38056	29948	35136	
3192	0	29546	37898	29924	35140	
3193	0	29983	37952	29872	35150	
3194	0	29394	37968	29880	35138	
3195	0	32284	37984	29856	35150	
3196	0	31210	38116	29846	35162	
3197	0	31952	38068	29818	35188	
3198	0	36444	38286	29808	35200	
3199	0	33096	38226	29780	35216	
3200	0	27697	38266	29776	35248	
3201	0	25762	38330	29768	35266	
3202	0	23804	38497	29772	35280	
3203	0	23772	38398	29760	35302	
3204	0	22840	38380	29739	35312	
3205	0	26785	38440	29760	35334	
3206	0	33980	38466	29742	35343	
3207	0	38938	38500	29718	35348	
3208	0	40590	38422	29682	35348	
3209	0	41500	38512	29653	35344	
3210	0	42132	38490	29617	35328	
3211	0	41668	38326	29526	35346	
3212	0	38604	38240	29490	35340	
3213	0	36034	38146	29444	35340	
3214	0	39748	38076	29416	35321	
3215	0	42624	38434	29400	35308	
3216	0	39424	38344	29384	35268	
3217	0	33946	38384	29364	35234	
3218	0	27568	38384	29388	35202	
3219	0	21522	38500	29418	35140	
3220	0	17312	38608	29402	35104	
3221	0	18337	38656	29408	35044	
3222	0	24342	38600	29440	35003	
3223	0	31596	38556	29457	34944	
3224	0	37874	38664	29441	34888	
3225	0	39236	38602	29452	34836	
3226	0	37596	38272	29444	34794	
3227	0	35904	38232	29468	34756	
3228	0	33346	37841	29460	34712	
3229	0	31182	37668	29472	34668	
3230	0	30730	37399	29484	34663	
3231	0	31704	36940	29514	34604	
3232	0	35504	36796	29505	34594	
3233	0	37421	36608	29526	34576	
3234	0	43070	36460	29537	34562	
3235	0	47004	36420	29582	34528	
3236	0	45040	36260	29620	34511	
3237	0	36164	36068	29682	34496	
3238	0	25655	36020	29728	34489	
3239	0	15926	36186	29786	34474	
3240	0	13461	36436	29877	34478	
3241	0	18818	36722	29932	34504	
3242	0	28424	37060	29994	34540	
3243	0	35313	37378	30028	34580	
3244	0	37676	37664	30044	34642	
3245	0	36004	37754	30080	34704	
3246	0	35138	37936	30069	34756	
3247	0	33896	37850	30026	34820	
3248	0	34533	37920	29966	34888	
3249	0	39154	37932	29874	34938	
3250	0	42074	37900	29808	34946	
3251	0	43503	37796	29708	34959	
3252	0	45648	37814	29640	34948	
3253	0	42740	37472	29580	34912	
3254	0	37052	37193	29506	34868	
3255	0	31220	37249	29488	34828	
3256	0	22296	37094	29492	34784	
3257	0	14929	37048	29490	34740	
3258	0	15569	37232	29492	34740	
3259	0	19577	37208	29532	34746	
3260	0	24372	37270	29571	34778	
3261	0	27332	37436	29617	34792	
3262	0	30154	37504	29648	34852	
3263	0	31746	37668	29660	34920	
3264	0	33280	37658	29664	34986	
3265	0	34484	37748	29666	35032	
3266	0	36464	37800	29625	35086	
3267	0	38978	37744	29609	35130	
3268	0	40217	37664	29564	35168	
3269	0	39008	37544	29510	35188	
3270	0	34047	37460	29464	35220	
3271	0	32466	37434	29428	35218	
3272	0	31002	37344	29370	35216	
3273	0	31940	37520	29382	35202	
3274	0	29988	37572	29358	35190	
3275	0	31456	37688	29350	35160	
3276	0	37297	37839	29344	35116	
3277	0	39894	38116	29352	35082	
3278	0	40208	38220	29333	35032	
3279	0	36084	38102	29276	34954	
3280	0	30562	38040	29226	34884	
3281	0	27702	38150	29162	34810	
3282	0	29718	38234	29134	34716	
3283	0	33680	38170	29065	34650	
3284	0	35502	38154	29015	34576	
3285	0	36977	38400	29000	34516	
3286	0	42670	38524	28966	34468	
3287	0	42496	38532	28918	34450	
3288	0	35018	38388	28874	34456	
3289	0	29594	38274	28864	34468	
3290	0	25484	38320	28835	34502	
3291	0	19665	38360	28836	34538	
3292	0	17140	38202	28828	34588	
3293	0	19638	38150	28854	34658	
3294	0	26272	38094	28872	34718	
3295	0	32804	37960	28874	34768	
3296	0	34310	37988	28897	34824	
3297	0	35512	37870	28911	34863	
3298	0	38604	37832	28930	34884	
3299	0	40142	37660	28954	34882	
3300	0	39250	37436	28968	34886	
3301	0	35836	37240	28975	34882	
3302	0	32304	36974	29038	34854	
3303	0	30314	36803	29039	34816	
3304	0	32064	36529	29052	34756	
3305	0	37928	36472	29128	34700	
3306	0	46346	36695	29162	34652	
3307	0	51402	36162	29164	34608	
3308	0	52564	36012	29182	34548	
3309	0	44528	36140	29193	34544	
3310	0	30126	35872	29231	34520	
3311	0	15649	35886	29268	34537	
3312	0	5656	35862	29302	34544	
3313	0	5770	36108	29312	34592	
3314	0	13304	36358	29352	34668	
3315	0	23988	36568	29383	34748	
3316	0	29787	36786	29386	34838	
3317	0	32768	37044	29436	34950	
3318	0	36256	37206	29442	35016	
3319	0	40090	37434	29458	35104	
3320	0	41254	37398	29432	35178	
3321	0	39984	37460	29424	35200	
3322	0	40296	37421	29390	35232	
3323	0	42674	37482	29352	35244	
3324	0	45996	37692	29351	35216	
3325	0	42282	37400	29327	35192	
3326	0	34340	37140	29280	35150	
3327	0	27356	36990	29255	35104	
3328	0	22751	37016	29252	35054	
3329	0	18846	37232	29227	34990	
3330	0	17976	37464	29236	34964	
3331	0	22409	37558	29244	34944	
3332	0	33316	37829	29235	34904	
3333	0	39888	38285	29224	34852	
3334	0	41184	38260	29196	34824	
3335	0	41544	38360	29123	34762	
3336	0	42180	38396	29044	34714	
3337	0	39462	38001	28969	34670	
3338	0	36340	37836	28875	34624	
3339	0	34812	37626	28790	34569	
3340	0	30130	37426	28734	34516	
3341	0	27013	37416	28672	34484	
3342	0	26688	37220	28638	34441	
3343	0	24638	37164	28617	34436	
3344	0	24804	37174	28644	34436	
3345	0	28620	37241	28660	34496	
3346	0	32226	37313	28721	34520	
3347	0	35268	37224	28768	34566	
3348	0	38111	37442	28822	34624	
3349	0	38708	37359	28828	34664	
3350	0	37646	37452	28852	34714	
3351	0	35994	37376	28876	34736	
3352	0	35562	37216	28886	34736	
3353	0	33210	37270	28896	34728	
3354	0	34828	37279	28896	34710	
3355	0	35112	37314	28890	34676	
3356	0	29486	37320	28869	34650	
3357	0	27616	37442	28856	34600	
3358	0	27358	37560	28830	34578	
3359	0	26496	37748	28806	34538	
3360	0	28828	37837	28788	34530	
3361	0	34326	37902	28794	34544	
3362	0	37282	38032	28776	34554	
3363	0	38498	38032	28762	34573	
3364	0	37158	37900	28764	34604	
3365	0	34124	37746	28758	34612	
3366	0	31930	37686	28756	34648	
3367	0	35170	37472	28766	34626	
3368	0	42019	37572	28786	34680	
3369	0	43740	37558	28778	34700	
3370	0	37196	37112	28746	34746	
3371	0	32846	36968	28746	34759	
3372	0	27004	36946	28746	34758	
3373	0	17957	36756	28724	34760	
3374	0	15861	36908	28740	34736	
3375	0	17252	36902	28772	34748	
3376	0	21327	37016	28818	34780	
3377	0	25465	37088	28854	34808	
3378	0	29734	37208	28888	34844	
3379	0	35216	37256	28948	34898	
3380	0	40514	37311	28984	34950	
3381	0	40753	37312	28994	34984	
3382	0	39530	37136	28975	35036	
3383	0	38590	37024	28972	35048	
3384	0	37254	36767	28952	35056	
3385	0	37208	36796	28954	35062	
3386	0	38226	36840	28920	35074	
3387	0	37804	36646	28904	35056	
3388	0	38204	36544	28884	35032	
3389	0	38906	36642	28888	34998	
3390	0	37966	36632	28899	34960	
3391	0	35220	36550	28894	34922	
3392	0	31864	36704	28882	34856	
3393	0	26228	36782	28892	34800	
3394	0	22452	36848	28900	34735	
3395	0	23068	36888	28901	34674	
3396	0	26244	36938	28914	34597	
3397	0	28084	37184	28900	34530	
3398	0	30607	37048	28870	34484	
3399	0	34446	37166	28842	34436	
3400	0	40172	37402	28826	34436	
3401	0	40112	37358	28778	34410	
3402	0	35368	37270	28738	34432	
3403	0	30736	37336	28732	34445	
3404	0	28224	37408	28682	34468	
3405	0	27208	37442	28687	34524	
3406	0	27198	37508	28684	34582	
3407	0	31154	37718	28696	34659	
3408	0	38444	37832	28722	34734	
3409	0	40906	37990	28772	34788	
3410	0	37314	37970	28770	34840	
3411	0	37094	38016	28776	34874	
3412	0	39040	38068	28756	34890	
3413	0	43520	38072	28738	34930	
3414	0	39607	37984	28710	34904	
3415	0	32062	37798	28672	34922	
3416	0	23215	37660	28603	34882	
3417	0	15162	37658	28586	34894	
3418	0	16214	37686	28542	34892	
3419	0	23274	37797	28504	34904	
3420	0	29666	37796	28487	34932	
3421	0	36160	37984	28498	34968	
3422	0	38509	38248	28508	35024	
3423	0	36008	38210	28524	35082	
3424	0	30488	38208	28558	35132	
3425	0	27030	38200	28536	35171	
3426	0	31020	38120	28554	35223	
3427	0	34166	37993	28558	35214	
3428	0	36511	37792	28546	35207	
3429	0	37668	37454	28518	35168	
3430	0	37380	37340	28510	35138	
3431	0	37466	37112	28522	35072	
3432	0	38914	36864	28544	35002	
3433	0	42326	37040	28539	34900	
3434	0	41952	36903	28538	34796	
3435	0	37130	36614	28564	34692	
3436	0	31464	36600	28559	34604	
3437	0	27072	36466	28539	34518	
3438	0	26484	36496	28550	34448	
3439	0	28844	36720	28558	34390	
3440	0	30948	36760	28570	34326	
3441	0	30922	36956	28594	34342	
3442	0	29516	37046	28584	34338	
3443	0	24121	37182	28591	34364	
3444	0	24612	37402	28616	34402	
3445	0	27076	37456	28630	34446	
3446	0	32452	37526	28628	34498	
3447	0	35703	37458	28645	34560	
3448	0	36982	37490	28634	34592	
3449	0	37597	37332	28614	34606	
3450	0	38120	37092	28624	34598	
3451	0	38008	36706	28600	34594	
3452	0	37184	36550	28600	34568	
3453	0	36320	36264	28570	34536	
3454	0	41358	36306	28596	34508	
3455	0	44544	36220	28603	34484	
3456	0	37476	35992	28596	34462	
3457	0	28508	35852	28590	34466	
3458	0	22167	35856	28596	34476	
3459	0	18218	35970	28588	34486	
3460	0	15676	36242	28604	34530	
3461	0	17263	36404	28612	34572	
3462	0	26513	36762	28634	34648	
3463	0	39638	37216	28648	34714	
3464	0	43140	37544	28666	34788	
3465	0	41257	37545	28672	34862	
3466	0	39824	37680	28657	34892	
3467	0	35974	37552	28642	34920	
3468	0	32210	37550	28596	34950	
3469	0	31812	37644	28576	34956	
3470	0	32423	37512	28504	34930	
3471	0	32239	37488	28462	34880	
3472	0	32792	37290	28404	34828	
3473	0	38816	37240	28366	34768	
3474	0	41156	37272	28360	34696	
3475	0	37945	37108	28334	34639	
3476	0	36000	37264	28332	34602	
3477	0	31232	37173	28335	34588	
3478	0	27292	37210	28336	34578	
3479	0	23714	37400	28360	34602	
3480	0	20058	37588	28360	34625	
3481	0	23376	37717	28386	34677	
3482	0	28751	37802	28367	34726	
3483	0	31724	37784	28394	34786	
3484	0	33428	37788	28393	34842	
3485	0	35664	37658	28371	34878	
3486	0	36033	37636	28356	34912	
3487	0	36038	37687	28358	34911	
3488	0	35474	37570	28366	34928	
3489	0	35552	37456	28352	34926	
3490	0	36068	37420	28376	34946	
3491	0	37466	37492	28376	34948	
3492	0	42630	37620	28376	34938	
3493	0	49312	37812	28386	34944	
3494	0	49644	37694	28410	34940	
3495	0	41454	37543	28442	34932	
3496	0	29144	37324	28435	34916	
3497	0	13976	37516	28448	34912	
3498	0	6064	37718	28446	34890	
3499	0	4729	37854	28471	34870	
3500	0	16463	38024	28486	34860	
3501	0	29048	38164	28516	34836	
3502	0	33944	38388	28520	34810	
3503	0	37274	38478	28514	34780	
3504	0	40500	38440	28516	34742	
3505	0	41302	38464	28524	34684	
3506	0	40046	38026	28506	34644	
3507	0	39160	37852	28458	34570	
3508	0	37436	37391	28432	34532	
3509	0	36856	37026	28406	34484	
3510	0	36468	36746	28394	34436	
3511	0	34816	36520	28399	34416	
3512	0	33766	36012	28396	34406	
3513	0	37034	36044	28410	34406	
3514	0	40986	35920	28452	34416	
3515	0	39336	35888	28487	34466	
3516	0	32411	35622	28500	34520	
3517	0	26908	35732	28520	34585	
3518	0	21378	35738	28546	34616	
3519	0	18644	35888	28550	34680	
3520	0	18656	36040	28558	34738	
3521	0	26723	36308	28574	34746	
3522	0	34187	36520	28592	34778	
3523	0	38720	36756	28606	34780	
3524	0	42039	37074	28615	34778	
3525	0	42395	37218	28574	34749	
3526	0	39532	37049	28572	34757	
3527	0	36408	36901	28519	34704	
3528	0	36448	36840	28500	34642	
3529	0	34119	36780	28480	34591	
3530	0	31375	36466	28462	34548	
3531	0	28976	36432	28402	34504	
3532	0	27622	36357	28334	34480	
3533	0	24689	36342	28297	34466	
3534	0	23386	36228	28268	34426	
3535	0	24358	36226	28266	34418	
3536	0	29312	36288	28226	34440	
3537	0	35968	36400	28240	34452	
3538	0	38840	36500	28250	34468	
3539	0	39716	36554	28250	34500	
3540	0	42414	36752	28248	34529	
3541	0	42400	36610	28231	34537	
3542	0	38754	36646	28242	34534	
3543	0	34356	36512	28248	34530	
3544	0	30084	36642	28208	34514	
3545	0	24480	36626	28186	34490	
3546	0	24804	36806	28164	34500	
3547	0	28958	36768	28126	34482	
3548	0	33296	36926	28132	34472	
3549	0	34372	37000	28102	34476	
3550	0	33212	37092	28094	34469	
3551	0	31244	37002	28074	34468	
3552	0	30192	37125	28056	34450	
3553	0	26408	37174	28050	34440	
3554	0	30176	37254	28010	34400	
3555	0	35888	37175	28022	34380	
3556	0	38965	37484	28032	34328	
3557	0	39584	37336	28040	34266	
3558	0	37429	37398	28033	34200	
3559	0	37206	37332	28028	34142	
3560	0	37488	37280	28021	34128	
3561	0	36560	37120	28020	34122	
3562	0	32327	37120	27986	34092	
3563	0	26602	36970	27952	34119	
3564	0	23092	37108	27960	34156	
3565	0	23797	37270	27996	34218	
3566	0	23881	37316	28022	34280	
3567	0	26846	37420	28074	34408	
3568	0	35496	37484	28110	34522	
3569	0	45180	37804	28198	34637	
3570	0	45398	37764	28208	34792	
3571	0	40768	37476	28273	34878	
3572	0	33996	37244	28304	34972	
3573	0	24816	37116	28364	35031	
3574	0	19806	36998	28372	35048	
3575	0	20404	36924	28399	35076	
3576	0	28076	36612	28414	35072	
3577	0	34328	36598	28412	35055	
3578	0	39550	36605	28424	35012	
3579	0	41184	36556	28440	34946	
3580	0	39228	36468	28404	34882	
3581	0	35506	36316	28372	34842	
3582	0	37050	36388	28380	34784	
3583	0	36334	36312	28340	34722	
3584	0	35282	36324	28312	34656	
3585	0	32968	36380	28316	34604	
3586	0	30654	36388	28294	34560	
3587	0	24484	36376	28265	34530	
3588	0	22942	36276	28256	34488	
3589	0	24868	36226	28228	34426	
3590	0	31592	36204	28216	34414	
3591	0	43050	36272	28196	34362	
3592	0	50880	35880	28216	34324	
3593	0	46186	35808	28202	34272	
3594	0	33226	35728	28128	34234	
3595	0	22210	35578	28094	34196	
3596	0	15160	35536	28086	34146	
3597	0	12772	35626	28058	34128	
3598	0	17258	35688	28039	34116	
3599	0	27920	36019	28036	34149	
3600	0	36708	36228	28015	34192	
3601	0	39834	36416	28020	34220	
3602	0	39950	36630	28022	34285	
3603	0	40212	36648	28026	34324	
3604	0	39752	36560	28018	34346	
3605	0	37832	36548	28022	34362	
3606	0	36921	36608	28018	34340	
3607	0	37162	36468	27996	34292	
3608	0	34524	36398	27987	34240	
3609	0	31720	36426	27992	34186	
3610	0	30122	36322	27968	34078	
3611	0	30972	36332	27966	34024	
3612	0	32588	36525	27966	33954	
3613	0	34138	36471	27969	33898	
3614	0	35586	36800	27952	33832	
3615	0	35137	36716	27950	33812	
3616	0	37224	36818	27922	33774	
3617	0	39822	36912	27914	33742	
3618	0	37448	36744	27872	33738	
3619	0	33096	36714	27845	33718	
3620	0	28182	36464	27826	33700	
3621	0	23759	36227	27776	33702	
3622	0	20206	36326	27764	33668	
3623	0	20832	36374	27794	33684	
3624	0	26412	36391	27820	33728	
3625	0	32942	36372	27830	33772	
3626	0	37900	36736	27864	33834	
3627	0	40756	36824	27918	33884	
3628	0	38852	36850	27942	33933	
3629	0	34588	36798	27984	34042	
3630	0	31543	36736	28018	34112	
3631	0	31094	37006	28036	34160	
3632	0	32670	36980	28016	34224	
3633	0	36892	36908	28040	34232	
3634	0	38510	36934	28064	34240	
3635	0	35940	36748	28080	34216	
3636	0	30984	36618	28088	34200	
3637	0	28720	36612	28131	34216	
3638	0	29280	36600	28164	34226	
3639	0	30916	36608	28186	34220	
3640	0	32810	36690	28191	34255	
3641	0	36894	36800	28192	34292	
3642	0	40424	36874	28216	34274	
3643	0	37488	36864	28204	34306	
3644	0	32606	36700	28180	34325	
3645	0	26952	36698	28158	34340	
3646	0	22578	36596	28138	34383	
3647	0	20238	36618	28153	34408	
3648	0	27136	36694	28176	34440	
3649	0	32800	36544	28201	34474	
3650	0	37608	36528	28222	34489	
3651	0	39056	36484	28255	34534	
3652	0	37242	36460	28304	34530	
3653	0	33990	36096	28303	34528	
3654	0	31308	36114	28312	34546	
3655	0	30972	36058	28330	34536	
3656	0	35762	36096	28358	34526	
3657	0	42388	36336	28351	34488	
3658	0	43652	36298	28340	34474	
3659	0	39122	36092	28332	34442	
3660	0	32130	36016	28314	34432	
3661	0	24534	36068	28306	34383	
3662	0	18778	36154	28284	34398	
3663	0	17975	36392	28272	34362	
3664	0	20206	36338	28257	34324	
3665	0	24807	36506	28277	34304	
3666	0	30743	36695	28270	34304	
3667	0	34440	36802	28266	34254	
3668	0	40172	37088	28259	34224	
3669	0	42436	37092	28229	34134	
3670	0	41056	36984	28204	34068	
3671	0	39358	36770	28140	33988	
3672	0	37834	36578	28108	33924	
3673	0	36388	36224	28060	33836	
3674	0	32780	35928	28032	33746	
3675	0	28192	35820	27992	33681	
3676	0	27770	35542	27982	33682	
3677	0	30400	35558	27946	33649	
3678	0	32761	35596	27938	33650	
3679	0	34530	35722	27946	33682	
3680	0	35176	35848	27974	33745	
3681	0	35189	36072	27980	33800	
3682	0	34848	36324	28000	33856	
3683	0	35528	36346	28000	33940	
3684	0	36788	36561	28020	33972	
3685	0	39902	36666	28016	34024	
3686	0	36126	36448	28049	34020	
3687	0	28465	36425	28034	34016	
3688	0	23295	36424	28013	33996	
3689	0	22536	36336	27988	33951	
3690	0	22280	36454	28002	33898	
3691	0	26112	36532	27968	33860	
3692	0	34390	36738	27977	33820	
3693	0	40340	37025	28006	33804	
3694	0	40568	37380	27998	33774	
3695	0	39074	37548	28010	33744	
3696	0	35438	37352	27989	33756	
3697	0	31168	37336	27966	33756	
3698	0	29162	37448	27970	33762	
3699	0	27614	37458	27962	33764	
3700	0	30094	37290	27950	33748	
3701	0	37196	37352	27922	33764	
3702	0	40428	37264	27899	33772	
3703	0	37640	36884	27880	33774	
3704	0	34278	36712	27856	33794	
3705	0	30919	36496	27854	33760	
3706	0	28436	36292	27854	33792	
3707	0	26560	36199	27848	33796	
3708	0	27538	36204	27816	33842	
3709	0	30986	36260	27804	33914	
3710	0	34495	36244	27814	34004	
3711	0	34940	36239	27810	34053	
3712	0	33840	36258	27840	34148	
3713	0	33108	36424	27860	34228	
3714	0	35252	36464	27904	34288	
3715	0	36974	36356	27910	34362	
3716	0	33944	36382	27944	34368	
3717	0	31268	36284	27944	34412	
3718	0	28108	36352	27992	34432	
3719	0	25520	36404	28002	34408	
3720	0	26240	36428	28053	34408	
3721	0	31324	36618	28068	34384	
3722	0	35016	36740	28078	34358	
3723	0	35432	36898	28092	34350	
3724	0	37264	36858	28082	34280	
3725	0	42625	37090	28069	34216	
3726	0	42456	37052	28066	34165	
3727	0	37738	36708	28028	34124	
3728	0	31936	36576	28000	34058	
3729	0	27070	36414	27970	34009	
3730	0	24684	36180	27936	33948	
3731	0	27074	36075	27910	33910	
3732	0	29098	36064	27940	33882	
3733	0	31596	36020	27945	33882	
3734	0	35162	35930	27944	33880	
3735	0	37344	36188	27964	33884	
3736	0	35862	36212	27958	33896	
3737	0	36984	36282	27982	33936	
3738	0	42774	36590	27984	33968	
3739	0	41017	36512	27946	34000	
3740	0	32716	36396	27922	34032	
3741	0	24151	36336	27904	34056	
3742	0	19028	36376	27880	34089	
3743	0	18881	36548	27860	34100	
3744	0	25040	36666	27828	34094	
3745	0	33280	36710	27776	34132	
3746	0	37486	36894	27776	34145	
3747	0	36652	37063	27780	34168	
3748	0	35658	37102	27780	34154	
3749	0	33700	36912	27770	34159	
3750	0	33130	37008	27764	34132	
3751	0	36582	37014	27744	34136	
3752	0	37668	36912	27745	34108	
3753	0	33826	36824	27702	34097	
3754	0	28844	36718	27694	34068	
3755	0	25104	36616	27696	34044	
3756	0	24248	36603	27686	34030	
